Freq[Hz]        [dBSPL]         Phase[Deg]
10.00           107.14          -170.30
10.04           107.11          -172.00
10.08           107.09          -173.82
10.12           107.07          -175.75
10.17           107.05          -177.80
10.21           107.03          -179.95
10.25           107.01          177.79
10.29           107.00          175.44
10.33           106.96          171.31
10.38           106.92          166.88
10.42           106.90          162.16
10.46           106.87          157.17
10.50           106.85          151.92
10.55           106.84          146.43
10.59           106.83          140.74
10.64           106.82          134.85
10.68           106.82          128.80
10.72           106.81          122.63
10.77           106.81          116.35
10.81           106.81          110.00
10.86           106.80          103.60
10.90           106.80          97.20
10.95           106.79          90.82
10.99           106.78          84.49
11.04           106.77          78.26
11.08           106.75          72.14
11.13           106.73          66.19
11.17           106.70          60.43
11.22           106.67          54.90
11.26           106.62          49.64
11.31           106.57          44.69
11.36           106.51          40.10
11.40           106.43          35.89
11.45           106.35          32.11
11.50           106.25          28.79
11.55           106.14          25.98
11.59           106.02          23.68
11.64           105.89          21.94
11.69           105.74          20.75
11.74           105.57          20.15
11.78           105.39          20.13
11.83           105.20          20.70
11.88           104.99          21.86
11.93           104.77          23.61
11.98           104.53          25.92
12.03           104.28          28.78
12.08           104.02          32.17
12.13           103.74          36.07
12.18           103.45          40.43
12.23           103.15          45.22
12.28           102.85          50.41
12.33           102.53          55.97
12.38           102.20          61.85
12.43           101.87          68.02
12.48           101.54          74.44
12.53           101.20          81.07
12.58           100.86          87.87
12.64           100.51          94.80
12.69           100.17          101.81
12.74           99.83           108.87
12.79           99.49           115.92
12.85           99.16           122.92
12.90           98.84           129.83
12.95           98.52           136.61
13.00           98.21           143.21
13.06           97.92           149.61
13.11           97.63           155.78
13.17           97.36           161.69
13.22           97.11           167.31
13.27           96.87           172.63
13.33           96.64           177.64
13.38           96.44           -177.67
13.44           96.25           -173.32
13.49           96.07           -169.29
13.55           95.91           -165.59
13.61           95.77           -162.21
13.66           95.64           -159.13
13.72           95.52           -156.35
13.77           95.41           -153.83
13.83           95.31           -151.58
13.89           95.23           -149.56
13.94           95.15           -147.77
14.00           95.08           -146.19
14.06           95.01           -144.80
14.12           94.95           -143.57
14.18           94.89           -142.50
14.23           94.83           -141.56
14.29           94.77           -140.74
14.35           94.71           -140.01
14.41           94.65           -139.35
14.47           94.59           -138.75
14.53           94.53           -138.19
14.59           94.46           -137.65
14.65           94.39           -137.12
14.71           94.31           -136.57
14.77           94.23           -136.00
14.83           94.14           -135.38
14.89           94.05           -134.72
14.95           93.96           -133.98
15.01           93.87           -133.16
15.08           93.77           -132.25
15.14           93.67           -131.23
15.20           93.57           -130.10
15.26           93.48           -128.84
15.33           93.39           -127.45
15.39           93.30           -125.90
15.45           93.23           -124.20
15.52           93.16           -122.32
15.58           93.10           -120.26
15.64           93.05           -118.01
15.71           93.02           -115.55
15.77           93.00           -112.86
15.84           93.01           -109.96
15.90           93.03           -106.83
15.97           93.07           -103.48
16.03           93.14           -99.92
16.10           93.22           -96.16
16.17           93.33           -92.21
16.23           93.46           -88.09
16.30           93.62           -83.84
16.37           93.79           -79.49
16.43           93.98           -75.06
16.50           94.19           -70.61
16.57           94.41           -66.18
16.64           94.64           -61.81
16.70           94.88           -57.58
16.77           95.14           -53.53
16.84           95.39           -49.74
16.91           95.65           -46.25
16.98           95.91           -43.15
17.05           96.16           -40.49
17.12           96.41           -38.35
17.19           96.65           -36.78
17.26           96.89           -35.84
17.33           97.11           -35.58
17.40           97.31           -36.03
17.48           97.50           -37.22
17.55           97.68           -39.17
17.62           97.84           -41.88
17.69           97.97           -45.36
17.77           98.09           -49.59
17.84           98.18           -54.54
17.91           98.25           -60.19
17.99           98.30           -66.49
18.06           98.32           -73.37
18.13           98.31           -80.78
18.21           98.28           -88.62
18.28           98.22           -96.83
18.36           98.13           -105.29
18.43           98.01           -113.93
18.51           97.87           -122.65
18.59           97.69           -131.35
18.66           97.48           -139.96
18.74           97.23           -148.39
18.82           96.96           -156.58
18.89           96.65           -164.48
18.97           96.31           -172.04
19.05           95.94           -179.23
19.13           95.53           173.97
19.21           95.09           167.57
19.29           94.62           161.57
19.37           94.11           155.95
19.44           93.57           150.68
19.52           93.00           145.72
19.61           92.41           141.02
19.69           91.78           136.51
19.77           91.13           132.11
19.85           90.46           127.74
19.93           89.77           123.32
20.01           89.07           118.76
20.09           88.36           113.97
20.18           87.64           108.90
20.26           86.92           103.49
20.34           86.21           97.68
20.43           85.50           91.43
20.51           84.81           84.72
20.59           84.13           77.53
20.68           83.47           69.84
20.76           82.83           61.67
20.85           82.22           53.01
20.94           81.63           43.91
21.02           81.07           34.39
21.11           80.53           24.50
21.20           80.02           14.30
21.28           79.53           3.87
21.37           79.06           -6.72
21.46           78.60           -17.40
21.55           78.15           -28.09
21.63           77.72           -38.72
21.72           77.29           -49.23
21.81           76.87           -59.54
21.90           76.46           -69.59
21.99           76.06           -79.33
22.08           75.66           -88.69
22.17           75.27           -97.61
22.27           74.89           -106.05
22.36           74.52           -113.96
22.45           74.17           -121.28
22.54           73.84           -127.97
22.63           73.54           -134.00
22.73           73.28           -139.32
22.82           73.07           -143.90
22.91           72.91           -147.71
23.01           72.83           -150.71
23.10           72.82           -152.91
23.20           72.90           -154.27
23.29           73.05           -154.80
23.39           73.26           -154.51
23.49           73.53           -153.40
23.58           73.84           -151.48
23.68           74.15           -148.80
23.78           74.46           -145.39
23.87           74.75           -141.28
23.97           74.99           -136.54
24.07           75.17           -131.22
24.17           75.29           -125.39
24.27           75.34           -119.14
24.37           75.32           -112.55
24.47           75.23           -105.71
24.57           75.09           -98.70
24.67           74.88           -91.62
24.77           74.60           -84.55
24.88           74.26           -77.60
24.98           73.83           -70.84
25.08           73.30           -64.39
25.18           72.66           -58.33
25.29           71.90           -52.77
25.39           70.98           -47.80
25.50           69.90           -43.54
25.60           68.65           -40.07
25.71           67.23           -37.52
25.81           65.66           -35.95
25.92           64.01           -35.42
26.02           62.34           -35.97
26.13           60.79           -37.58
26.24           59.52           -40.22
26.35           58.78           -43.84
26.45           58.75           -48.32
26.56           59.46           -53.55
26.67           60.70           -59.35
26.78           62.25           -65.54
26.89           63.89           -71.89
27.00           65.50           -78.11
27.11           67.00           -83.93
27.23           68.34           -89.02
27.34           69.51           -93.10
27.45           70.50           -95.93
27.56           71.34           -97.32
27.68           72.03           -97.11
27.79           72.60           -95.21
27.90           73.05           -91.59
28.02           73.41           -86.26
28.14           73.69           -79.29
28.25           73.89           -70.81
28.37           74.03           -61.01
28.48           74.09           -50.13
28.60           74.09           -38.47
28.72           74.01           -26.33
28.84           73.84           -14.03
28.96           73.58           -1.85
29.07           73.24           9.99
29.19           72.80           21.31
29.31           72.28           31.98
29.43           71.68           41.93
29.56           71.03           51.16
29.68           70.32           59.71
29.80           69.57           67.69
29.92           68.81           75.26
30.04           68.04           82.62
30.17           67.28           89.99
30.29           66.55           97.57
30.42           65.84           105.55
30.54           65.17           114.05
30.67           64.55           123.13
30.79           63.98           132.80
30.92           63.47           142.98
31.05           63.01           153.54
31.18           62.61           164.27
31.30           62.26           174.88
31.43           61.96           -174.97
31.56           61.70           -165.62
31.69           61.47           -157.38
31.82           61.27           -150.55
31.95           61.08           -145.37
32.08           60.90           -142.00
32.22           60.73           -140.50
32.35           60.55           -140.83
32.48           60.37           -142.85
32.62           60.18           -146.31
32.75           59.97           -150.87
32.88           59.76           -156.10
33.02           59.53           -161.54
33.16           59.30           -166.78
33.29           59.05           -171.39
33.43           58.80           -174.95
33.57           58.55           -177.14
33.70           58.31           -177.77
33.84           58.09           -176.72
33.98           57.90           -174.03
34.12           57.75           -169.81
34.26           57.67           -164.34
34.40           57.68           -157.91
34.54           57.79           -150.88
34.69           58.02           -143.65
34.83           58.36           -136.63
34.97           58.80           -130.27
35.12           59.31           -124.94
35.26           59.85           -120.93
35.41           60.38           -118.46
35.55           60.86           -117.66
35.70           61.26           -118.57
35.84           61.56           -121.16
35.99           61.79           -125.32
36.14           61.94           -130.89
36.29           62.02           -137.63
36.44           62.06           -145.20
36.59           62.05           -153.30
36.74           61.99           -161.60
36.89           61.89           -169.78
37.04           61.74           -177.57
37.19           61.55           175.30
37.35           61.32           169.05
37.50           61.10           163.82
37.65           60.93           159.72
37.81           60.90           156.79
37.97           61.06           154.99
38.12           61.44           154.26
38.28           61.96           154.48
38.44           62.48           155.48
38.59           62.93           157.08
38.75           63.25           159.07
38.91           63.47           161.27
39.07           63.60           163.50
39.23           63.67           165.56
39.39           63.69           167.31
39.56           63.68           168.59
39.72           63.62           169.30
39.88           63.53           169.39
40.05           63.39           168.85
40.21           63.17           167.71
40.38           62.88           166.01
40.54           62.51           163.83
40.71           62.12           161.25
40.88           61.87           158.42
41.04           61.96           155.47
41.21           62.45           152.52
41.38           63.21           149.68
41.55           64.03           147.02
41.72           64.79           144.61
41.90           65.43           142.47
42.07           65.95           140.61
42.24           66.37           139.04
42.42           66.70           137.71
42.59           66.98           136.58
42.76           67.21           135.59
42.94           67.41           134.71
43.12           67.58           133.89
43.29           67.72           133.11
43.47           67.83           132.33
43.65           67.89           131.52
43.83           67.91           130.68
44.01           67.89           129.77
44.19           67.86           128.79
44.37           67.85           127.73
44.56           67.88           126.57
44.74           67.97           125.31
44.92           68.11           123.96
45.11           68.29           122.52
45.29           68.50           121.00
45.48           68.71           119.42
45.67           68.92           117.81
45.86           69.11           116.19
46.04           69.28           114.58
46.23           69.41           112.99
46.42           69.52           111.45
46.61           69.60           109.95
46.81           69.65           108.51
47.00           69.66           107.13
47.19           69.66           105.80
47.39           69.63           104.52
47.58           69.58           103.28
47.78           69.51           102.07
47.97           69.44           100.87
48.17           69.36           99.67
48.37           69.28           98.45
48.57           69.21           97.18
48.77           69.15           95.85
48.97           69.11           94.43
49.17           69.09           92.89
49.37           69.10           91.23
49.58           69.13           89.42
49.78           69.20           87.45
49.98           69.29           85.31
50.19           69.41           82.99
50.40           69.56           80.52
50.60           69.73           77.91
50.81           69.91           75.22
51.02           70.10           72.50
51.23           70.30           69.82
51.44           70.50           67.25
51.65           70.69           64.87
51.86           70.87           62.72
52.08           71.04           60.80
52.29           71.19           59.13
52.51           71.33           57.67
52.72           71.45           56.39
52.94           71.55           55.22
53.16           71.64           54.13
53.38           71.70           53.09
53.60           71.76           52.08
53.82           71.80           51.07
54.04           71.83           50.06
54.26           71.85           49.03
54.48           71.88           47.95
54.71           71.92           46.79
54.93           71.96           45.54
55.16           72.01           44.18
55.39           72.08           42.76
55.61           72.15           41.31
55.84           72.23           39.90
56.07           72.32           38.61
56.30           72.41           37.48
56.53           72.51           36.54
56.77           72.63           35.76
57.00           72.77           35.07
57.23           72.94           34.38
57.47           73.15           33.60
57.71           73.39           32.65
57.94           73.65           31.51
58.18           73.92           30.14
58.42           74.17           28.59
58.66           74.38           26.89
58.90           74.55           25.09
59.15           74.66           23.18
59.39           74.74           21.16
59.63           74.80           19.04
59.88           74.84           16.82
60.12           74.87           14.51
60.37           74.90           12.15
60.62           74.93           9.83
60.87           74.95           7.65
61.12           74.95           5.66
61.37           74.92           3.92
61.62           74.87           2.44
61.88           74.78           1.19
62.13           74.69           0.10
62.39           74.60           -0.95
62.64           74.55           -2.05
62.90           74.54           -3.28
63.16           74.58           -4.70
63.42           74.66           -6.32
63.68           74.77           -8.12
63.94           74.91           -10.07
64.21           75.06           -12.11
64.47           75.23           -14.22
64.74           75.40           -16.36
65.00           75.57           -18.51
65.27           75.75           -20.68
65.54           75.94           -22.87
65.81           76.12           -25.07
66.08           76.30           -27.29
66.35           76.47           -29.51
66.62           76.63           -31.71
66.90           76.79           -33.89
67.17           76.95           -36.04
67.45           77.11           -38.17
67.73           77.27           -40.32
68.00           77.42           -42.51
68.28           77.57           -44.79
68.56           77.71           -47.22
68.85           77.83           -49.83
69.13           77.93           -52.63
69.41           78.02           -55.63
69.70           78.10           -58.81
69.99           78.17           -62.13
70.27           78.24           -65.56
70.56           78.31           -69.08
70.85           78.38           -72.70
71.14           78.45           -76.41
71.44           78.51           -80.24
71.73           78.57           -84.19
72.03           78.61           -88.27
72.32           78.64           -92.43
72.62           78.65           -96.65
72.92           78.65           -100.85
73.22           78.63           -105.01
73.52           78.59           -109.08
73.82           78.53           -113.05
74.13           78.45           -116.92
74.43           78.35           -120.71
74.74           78.23           -124.43
75.04           78.08           -128.09
75.35           77.90           -131.70
75.66           77.69           -135.27
75.97           77.44           -138.77
76.29           77.15           -142.16
76.60           76.82           -145.43
76.92           76.45           -148.52
