Freq[Hz]        [dBSPL]         Phase[Deg]
10.00           96.42           -176.78
10.04           96.44           -176.09
10.08           96.47           -175.44
10.12           96.50           -174.81
10.17           96.53           -174.20
10.21           96.57           -173.62
10.25           96.61           -173.07
10.29           96.66           -172.54
10.33           96.73           -171.34
10.38           96.82           -170.21
10.42           96.91           -169.14
10.46           97.02           -168.13
10.50           97.14           -167.17
10.55           97.27           -166.26
10.59           97.41           -165.39
10.64           97.56           -164.56
10.68           97.71           -163.75
10.72           97.88           -162.95
10.77           98.05           -162.17
10.81           98.23           -161.37
10.86           98.42           -160.57
10.90           98.61           -159.74
10.95           98.80           -158.88
10.99           99.00           -157.97
11.04           99.21           -157.01
11.08           99.41           -155.98
11.13           99.62           -154.87
11.17           99.83           -153.68
11.22           100.04          -152.38
11.26           100.25          -150.98
11.31           100.45          -149.44
11.36           100.66          -147.77
11.40           100.86          -145.95
11.45           101.06          -143.96
11.50           101.26          -141.80
11.55           101.45          -139.46
11.59           101.63          -136.94
11.64           101.81          -134.22
11.69           101.98          -131.31
11.74           102.15          -128.22
11.78           102.30          -124.95
11.83           102.45          -121.50
11.88           102.60          -117.89
11.93           102.73          -114.13
11.98           102.86          -110.24
12.03           102.97          -106.23
12.08           103.08          -102.14
12.13           103.18          -97.97
12.18           103.27          -93.77
12.23           103.35          -89.57
12.28           103.43          -85.38
12.33           103.49          -81.24
12.38           103.54          -77.19
12.43           103.59          -73.25
12.48           103.63          -69.46
12.53           103.65          -65.85
12.58           103.67          -62.45
12.64           103.68          -59.30
12.69           103.68          -56.44
12.74           103.67          -53.90
12.79           103.66          -51.71
12.85           103.63          -49.93
12.90           103.59          -48.57
12.95           103.54          -47.68
13.00           103.49          -47.28
13.06           103.42          -47.39
13.11           103.35          -48.03
13.17           103.27          -49.21
13.22           103.17          -50.94
13.27           103.07          -53.21
13.33           102.96          -56.03
13.38           102.85          -59.38
13.44           102.72          -63.25
13.49           102.59          -67.62
13.55           102.44          -72.46
13.61           102.30          -77.74
13.66           102.14          -83.42
13.72           101.98          -89.45
13.77           101.81          -95.80
13.83           101.63          -102.41
13.89           101.45          -109.25
13.94           101.27          -116.27
14.00           101.08          -123.41
14.06           100.89          -130.63
14.12           100.69          -137.89
14.18           100.49          -145.12
14.23           100.29          -152.27
14.29           100.09          -159.29
14.35           99.88           -166.14
14.41           99.68           -172.76
14.47           99.47           -179.13
14.53           99.26           174.80
14.59           99.06           169.05
14.65           98.86           163.64
14.71           98.66           158.59
14.77           98.46           153.91
14.83           98.27           149.60
14.89           98.08           145.65
14.95           97.90           142.06
15.01           97.72           138.81
15.08           97.55           135.88
15.14           97.38           133.23
15.20           97.23           130.83
15.26           97.08           128.64
15.33           96.94           126.62
15.39           96.82           124.73
15.45           96.70           122.93
15.52           96.60           121.17
15.58           96.51           119.41
15.64           96.43           117.60
15.71           96.37           115.70
15.77           96.32           113.66
15.84           96.29           111.45
15.90           96.28           109.02
15.97           96.28           106.35
16.03           96.30           103.40
16.10           96.34           100.15
16.17           96.40           96.58
16.23           96.46           92.67
16.30           96.55           88.40
16.37           96.64           83.78
16.43           96.74           78.79
16.50           96.86           73.44
16.57           96.97           67.73
16.64           97.10           61.67
16.70           97.22           55.28
16.77           97.34           48.57
16.84           97.45           41.56
16.91           97.56           34.27
16.98           97.66           26.72
17.05           97.75           18.91
17.12           97.82           10.89
17.19           97.88           2.65
17.26           97.91           -5.77
17.33           97.93           -14.34
17.40           97.93           -23.05
17.48           97.90           -31.86
17.55           97.85           -40.73
17.62           97.78           -49.63
17.69           97.69           -58.52
17.77           97.57           -67.36
17.84           97.43           -76.11
17.91           97.27           -84.72
17.99           97.08           -93.13
18.06           96.88           -101.30
18.13           96.66           -109.17
18.21           96.42           -116.67
18.28           96.16           -123.75
18.36           95.90           -130.34
18.43           95.63           -136.38
18.51           95.35           -141.80
18.59           95.08           -146.53
18.66           94.80           -150.52
18.74           94.53           -153.73
18.82           94.27           -156.13
18.89           94.02           -157.68
18.97           93.78           -158.39
19.05           93.56           -158.27
19.13           93.35           -157.33
19.21           93.16           -155.59
19.29           92.97           -153.12
19.37           92.80           -149.97
19.44           92.63           -146.21
19.52           92.47           -141.94
19.61           92.30           -137.25
19.69           92.13           -132.28
19.77           91.95           -127.14
19.85           91.75           -121.99
19.93           91.53           -116.97
20.01           91.29           -112.20
20.09           91.02           -107.84
20.18           90.72           -103.97
20.26           90.38           -100.71
20.34           90.01           -98.12
20.43           89.60           -96.26
20.51           89.14           -95.18
20.59           88.65           -94.88
20.68           88.11           -95.38
20.76           87.53           -96.64
20.85           86.90           -98.63
20.94           86.21           -101.28
21.02           85.48           -104.51
21.11           84.71           -108.21
21.20           83.90           -112.26
21.28           83.06           -116.49
21.37           82.20           -120.76
21.46           81.35           -124.90
21.55           80.51           -128.79
21.63           79.70           -132.29
21.72           78.94           -135.29
21.81           78.26           -137.72
21.90           77.67           -139.49
21.99           77.19           -140.56
22.08           76.82           -140.89
22.17           76.59           -140.47
22.27           76.47           -139.30
22.36           76.46           -137.40
22.45           76.55           -134.83
22.54           76.70           -131.65
22.63           76.89           -127.95
22.73           77.12           -123.84
22.82           77.34           -119.46
22.91           77.56           -114.92
23.01           77.75           -110.33
23.10           77.91           -105.80
23.20           78.03           -101.40
23.29           78.11           -97.20
23.39           78.15           -93.26
23.49           78.15           -89.60
23.58           78.10           -86.25
23.68           78.00           -83.21
23.78           77.86           -80.47
23.87           77.66           -77.99
23.97           77.40           -75.72
24.07           77.09           -73.60
24.17           76.72           -71.53
24.27           76.29           -69.41
24.37           75.81           -67.15
24.47           75.28           -64.64
24.57           74.70           -61.84
24.67           74.07           -58.68
24.77           73.41           -55.15
24.88           72.72           -51.22
24.98           72.00           -46.92
25.08           71.27           -42.27
25.18           70.53           -37.32
25.29           69.79           -32.16
25.39           69.07           -26.87
25.50           68.39           -21.59
25.60           67.76           -16.44
25.71           67.22           -11.60
25.81           66.78           -7.23
25.92           66.49           -3.49
26.02           66.37           -0.48
26.13           66.44           1.68
26.24           66.71           2.93
26.35           67.17           3.22
26.45           67.80           2.55
26.56           68.55           0.91
26.67           69.39           -1.64
26.78           70.27           -5.03
26.89           71.15           -9.16
27.00           71.99           -13.90
27.11           72.76           -19.07
27.23           73.46           -24.49
27.34           74.06           -29.98
27.45           74.58           -35.36
27.56           75.01           -40.47
27.68           75.36           -45.19
27.79           75.63           -49.40
27.90           75.84           -53.03
28.02           75.98           -56.01
28.14           76.06           -58.30
28.25           76.08           -59.91
28.37           76.04           -60.84
28.48           75.94           -61.15
28.60           75.76           -60.89
28.72           75.51           -60.15
28.84           75.20           -59.02
28.96           74.81           -57.59
29.07           74.37           -55.94
29.19           73.89           -54.12
29.31           73.36           -52.18
29.43           72.80           -50.15
29.56           72.23           -48.05
29.68           71.66           -45.87
29.80           71.10           -43.60
29.92           70.55           -41.21
30.04           70.02           -38.63
30.17           69.52           -35.82
30.29           69.04           -32.69
30.42           68.58           -29.16
30.54           68.14           -25.13
30.67           67.71           -20.53
30.79           67.28           -15.27
30.92           66.87           -9.26
31.05           66.46           -2.44
31.18           66.05           5.29
31.30           65.64           13.98
31.43           65.23           23.72
31.56           64.82           34.53
31.69           64.40           46.41
31.82           63.99           59.31
31.95           63.56           73.15
32.08           63.13           87.79
32.22           62.70           103.08
32.35           62.27           118.79
32.48           61.82           134.68
32.62           61.37           150.45
32.75           60.92           165.76
32.88           60.46           -179.76
33.02           59.99           -166.44
33.16           59.52           -154.60
33.29           59.04           -144.48
33.43           58.56           -136.31
33.57           58.08           -130.21
33.70           57.62           -126.26
33.84           57.17           -124.43
33.98           56.75           -124.60
34.12           56.40           -126.58
34.26           56.14           -130.08
34.40           56.01           -134.77
34.54           56.09           -140.32
34.69           56.41           -146.37
34.83           56.99           -152.54
34.97           57.81           -158.46
35.12           58.80           -163.80
35.26           59.86           -168.33
35.41           60.92           -171.86
35.55           61.88           -174.29
35.70           62.69           -175.60
35.84           63.34           -175.80
35.99           63.83           -174.99
36.14           64.20           -173.29
36.29           64.46           -170.90
36.44           64.64           -168.06
36.59           64.76           -165.04
36.74           64.82           -162.06
36.89           64.83           -159.34
37.04           64.78           -157.08
37.19           64.67           -155.44
37.35           64.49           -154.55
37.50           64.22           -154.49
37.65           63.84           -155.27
37.81           63.36           -156.86
37.97           62.82           -159.18
38.12           62.27           -162.11
38.28           61.80           -165.51
38.44           61.47           -169.18
38.59           61.30           -172.92
38.75           61.30           -176.55
38.91           61.44           -179.91
39.07           61.67           177.13
39.23           61.95           174.67
39.39           62.26           172.77
39.56           62.57           171.46
39.72           62.86           170.72
39.88           63.12           170.44
40.05           63.36           170.49
40.21           63.56           170.72
40.38           63.73           171.01
40.54           63.86           171.21
40.71           63.96           171.21
40.88           64.02           170.87
41.04           64.06           170.08
41.21           64.07           168.80
41.38           64.05           167.04
41.55           64.03           164.85
41.72           64.00           162.29
41.90           63.97           159.45
42.07           63.94           156.42
42.24           63.93           153.30
42.42           63.95           150.22
42.59           63.99           147.32
42.76           64.07           144.65
42.94           64.20           142.26
43.12           64.37           140.16
43.29           64.58           138.33
43.47           64.83           136.77
43.65           65.12           135.39
43.83           65.44           134.14
44.01           65.78           132.90
44.19           66.14           131.60
44.37           66.49           130.16
44.56           66.83           128.55
44.74           67.17           126.73
44.92           67.49           124.71
45.11           67.79           122.50
45.29           68.06           120.15
45.48           68.31           117.71
45.67           68.53           115.27
45.86           68.73           112.87
46.04           68.89           110.57
46.23           69.03           108.41
46.42           69.14           106.40
46.61           69.22           104.54
46.81           69.28           102.84
47.00           69.32           101.27
47.19           69.34           99.80
47.39           69.34           98.39
47.58           69.34           97.04
47.78           69.32           95.71
47.97           69.31           94.40
48.17           69.30           93.10
48.37           69.31           91.79
48.57           69.33           90.49
48.77           69.37           89.18
48.97           69.44           87.88
49.17           69.54           86.59
49.37           69.67           85.30
49.58           69.83           84.03
49.78           70.01           82.78
49.98           70.21           81.55
50.19           70.41           80.35
50.40           70.62           79.17
50.60           70.82           78.02
50.81           71.01           76.88
51.02           71.20           75.74
51.23           71.37           74.56
51.44           71.52           73.32
51.65           71.65           72.00
51.86           71.76           70.57
52.08           71.85           69.03
52.29           71.93           67.39
52.51           71.98           65.66
52.72           72.02           63.87
52.94           72.05           62.06
53.16           72.08           60.24
53.38           72.10           58.46
53.60           72.13           56.73
53.82           72.16           55.05
54.04           72.19           53.45
54.26           72.22           51.92
54.48           72.25           50.46
54.71           72.29           49.07
54.93           72.33           47.73
55.16           72.37           46.42
55.39           72.42           45.09
55.61           72.48           43.69
55.84           72.55           42.17
56.07           72.63           40.46
56.30           72.73           38.53
56.53           72.84           36.33
56.77           72.96           33.86
57.00           73.09           31.14
57.23           73.22           28.20
57.47           73.34           25.09
57.71           73.47           21.85
57.94           73.59           18.57
58.18           73.71           15.32
58.42           73.83           12.17
58.66           73.95           9.23
58.90           74.06           6.55
59.15           74.16           4.21
59.39           74.26           2.25
59.63           74.33           0.66
59.88           74.39           -0.58
60.12           74.43           -1.51
60.37           74.46           -2.19
60.62           74.47           -2.67
60.87           74.47           -2.99
61.12           74.48           -3.22
61.37           74.49           -3.40
61.62           74.52           -3.55
61.88           74.56           -3.74
62.13           74.63           -4.00
62.39           74.71           -4.38
62.64           74.81           -4.93
62.90           74.91           -5.63
63.16           75.02           -6.51
63.42           75.12           -7.53
63.68           75.23           -8.69
63.94           75.35           -9.95
64.21           75.48           -11.32
64.47           75.62           -12.78
64.74           75.78           -14.36
65.00           75.96           -16.05
65.27           76.15           -17.87
65.54           76.34           -19.83
65.81           76.53           -21.92
66.08           76.71           -24.15
66.35           76.88           -26.52
66.62           77.05           -29.01
66.90           77.20           -31.62
67.17           77.36           -34.34
67.45           77.52           -37.14
67.73           77.67           -40.02
68.00           77.81           -42.95
68.28           77.94           -45.91
68.56           78.05           -48.91
68.85           78.15           -51.94
69.13           78.22           -55.00
69.41           78.27           -58.11
69.70           78.31           -61.28
69.99           78.33           -64.52
70.27           78.35           -67.84
70.56           78.37           -71.27
70.85           78.39           -74.79
71.14           78.40           -78.41
71.44           78.43           -82.14
71.73           78.45           -85.96
72.03           78.47           -89.88
72.32           78.48           -93.90
72.62           78.47           -98.00
72.92           78.45           -102.19
73.22           78.40           -106.44
73.52           78.33           -110.69
73.82           78.23           -114.87
74.13           78.11           -118.87
74.43           77.97           -122.61
74.74           77.81           -126.05
75.04           77.62           -129.20
75.35           77.39           -132.16
75.66           77.13           -135.07
75.97           76.81           -138.04
76.29           76.45           -141.14
76.60           76.03           -144.33
