Freq[Hz]        [dBSPL]         Phase[Deg]
10.00           107.42          -136.70
10.04           107.55          -137.59
10.08           107.66          -138.41
10.12           107.76          -139.17
10.17           107.85          -139.88
10.21           107.93          -140.53
10.25           108.00          -141.12
10.29           108.06          -141.67
10.33           108.20          -143.05
10.38           108.32          -144.27
10.42           108.41          -145.35
10.46           108.48          -146.28
10.50           108.52          -147.07
10.55           108.54          -147.73
10.59           108.53          -148.27
10.64           108.50          -148.69
10.68           108.44          -149.02
10.72           108.36          -149.27
10.77           108.26          -149.44
10.81           108.13          -149.55
10.86           107.99          -149.61
10.90           107.82          -149.64
10.95           107.63          -149.65
10.99           107.43          -149.66
11.04           107.20          -149.67
11.08           106.96          -149.72
11.13           106.70          -149.80
11.17           106.42          -149.93
11.22           106.13          -150.15
11.26           105.83          -150.44
11.31           105.51          -150.85
11.36           105.18          -151.38
11.40           104.84          -152.05
11.45           104.49          -152.88
11.50           104.13          -153.88
11.55           103.76          -155.07
11.59           103.39          -156.46
11.64           103.01          -158.05
11.69           102.63          -159.85
11.74           102.25          -161.86
11.78           101.86          -164.09
11.83           101.47          -166.53
11.88           101.09          -169.17
11.93           100.71          -172.01
11.98           100.33          -175.04
12.03           99.95           -178.25
12.08           99.58           178.39
12.13           99.22           174.89
12.18           98.87           171.28
12.23           98.52           167.58
12.28           98.19           163.80
12.33           97.86           159.98
12.38           97.55           156.14
12.43           97.25           152.30
12.48           96.96           148.49
12.53           96.69           144.74
12.58           96.44           141.07
12.64           96.21           137.50
12.69           95.99           134.08
12.74           95.80           130.82
12.79           95.63           127.76
12.85           95.49           124.93
12.90           95.37           122.35
12.95           95.28           120.05
13.00           95.21           118.05
13.06           95.18           116.37
13.11           95.18           115.02
13.17           95.20           114.02
13.22           95.26           113.36
13.27           95.34           113.06
13.33           95.46           113.10
13.38           95.60           113.49
13.44           95.76           114.21
13.49           95.95           115.25
13.55           96.16           116.59
13.61           96.38           118.20
13.66           96.62           120.06
13.72           96.87           122.14
13.77           97.13           124.40
13.83           97.39           126.81
13.89           97.66           129.35
13.94           97.92           131.97
14.00           98.19           134.64
14.06           98.44           137.32
14.12           98.69           139.99
14.18           98.93           142.60
14.23           99.16           145.10
14.29           99.36           147.48
14.35           99.55           149.68
14.41           99.72           151.68
14.47           99.87           153.45
14.53           99.99           154.97
14.59           100.09          156.22
14.65           100.17          157.19
14.71           100.22          157.87
14.77           100.24          158.25
14.83           100.24          158.35
14.89           100.21          158.16
14.95           100.16          157.69
15.01           100.08          156.97
15.08           99.97           156.02
15.14           99.84           154.86
15.20           99.69           153.54
15.26           99.52           152.08
15.33           99.32           150.52
15.39           99.10           148.89
15.45           98.87           147.25
15.52           98.61           145.62
15.58           98.35           144.04
15.64           98.06           142.57
15.71           97.77           141.23
15.77           97.47           140.06
15.84           97.15           139.12
15.90           96.83           138.43
15.97           96.50           138.02
16.03           96.18           137.92
16.10           95.85           138.16
16.17           95.52           138.76
16.23           95.19           139.75
16.30           94.87           141.14
16.37           94.55           142.94
16.43           94.24           145.17
16.50           93.94           147.83
16.57           93.66           150.93
16.64           93.38           154.47
16.70           93.12           158.44
16.77           92.88           162.84
16.84           92.66           167.67
16.91           92.46           172.91
16.98           92.27           178.58
17.05           92.12           -175.34
17.12           91.98           -168.86
17.19           91.88           -161.98
17.26           91.80           -154.71
17.33           91.76           -147.06
17.40           91.74           -139.05
17.48           91.76           -130.71
17.55           91.81           -122.05
17.62           91.88           -113.11
17.69           91.99           -103.92
17.77           92.12           -94.50
17.84           92.27           -84.91
17.91           92.44           -75.18
17.99           92.63           -65.37
18.06           92.82           -55.52
18.13           93.03           -45.69
18.21           93.23           -35.94
18.28           93.43           -26.34
18.36           93.63           -16.94
18.43           93.81           -7.83
18.51           93.98           0.95
18.59           94.13           9.31
18.66           94.26           17.19
18.74           94.36           24.55
18.82           94.44           31.35
18.89           94.48           37.53
18.97           94.50           43.08
19.05           94.49           47.99
19.13           94.45           52.24
19.21           94.37           55.83
19.29           94.26           58.77
19.37           94.12           61.10
19.44           93.95           62.83
19.52           93.75           64.01
19.61           93.51           64.70
19.69           93.24           64.96
19.77           92.94           64.86
19.85           92.62           64.49
19.93           92.27           63.91
20.01           91.90           63.21
20.09           91.50           62.46
20.18           91.09           61.73
20.26           90.67           61.07
20.34           90.23           60.54
20.43           89.78           60.18
20.51           89.32           60.02
20.59           88.86           60.09
20.68           88.39           60.40
20.76           87.92           60.96
20.85           87.45           61.77
20.94           86.98           62.82
21.02           86.50           64.08
21.11           86.03           65.54
21.20           85.55           67.14
21.28           85.07           68.84
21.37           84.58           70.58
21.46           84.09           72.32
21.55           83.58           74.01
21.63           83.07           75.60
21.72           82.54           77.07
21.81           82.01           78.38
21.90           81.46           79.51
21.99           80.90           80.45
22.08           80.33           81.19
22.17           79.74           81.72
22.27           79.15           82.05
22.36           78.55           82.19
22.45           77.94           82.16
22.54           77.34           81.99
22.63           76.74           81.69
22.73           76.17           81.33
22.82           75.62           80.95
22.91           75.11           80.58
23.01           74.65           80.28
23.10           74.27           80.07
23.20           73.96           80.00
23.29           73.74           80.09
23.39           73.60           80.35
23.49           73.54           80.82
23.58           73.55           81.50
23.68           73.62           82.40
23.78           73.72           83.52
23.87           73.84           84.85
23.97           73.95           86.40
24.07           74.04           88.13
24.17           74.10           90.04
24.27           74.11           92.09
24.37           74.06           94.25
24.47           73.97           96.50
24.57           73.81           98.80
24.67           73.61           101.13
24.77           73.34           103.46
24.88           73.02           105.75
24.98           72.62           107.99
25.08           72.14           110.15
25.18           71.58           112.19
25.29           70.91           114.09
25.39           70.13           115.83
25.50           69.22           117.37
25.60           68.19           118.71
25.71           67.03           119.80
25.81           65.76           120.64
25.92           64.44           121.18
26.02           63.09           121.42
26.13           61.81           121.32
26.24           60.67           120.85
26.35           59.78           119.99
26.45           59.26           118.71
26.56           59.17           116.98
26.67           59.50           114.78
26.78           60.16           112.06
26.89           61.05           108.79
27.00           62.06           104.95
27.11           63.10           100.51
27.23           64.12           95.42
27.34           65.08           89.68
27.45           65.95           83.27
27.56           66.72           76.20
27.68           67.40           68.47
27.79           67.98           60.11
27.90           68.46           51.16
28.02           68.84           41.65
28.14           69.13           31.64
28.25           69.34           21.20
28.37           69.46           10.41
28.48           69.50           -0.65
28.60           69.47           -11.86
28.72           69.36           -23.12
28.84           69.17           -34.33
28.96           68.90           -45.38
29.07           68.54           -56.17
29.19           68.08           -66.60
29.31           67.52           -76.59
29.43           66.85           -86.07
29.56           66.05           -94.96
29.68           65.13           -103.20
29.80           64.07           -110.74
29.92           62.88           -117.54
30.04           61.57           -123.55
30.17           60.18           -128.75
30.29           58.76           -133.12
30.42           57.44           -136.65
30.54           56.40           -139.33
30.67           55.85           -141.14
30.79           55.93           -142.08
30.92           56.59           -142.13
31.05           57.60           -141.28
31.18           58.74           -139.52
31.30           59.82           -136.83
31.43           60.75           -133.22
31.56           61.50           -128.69
31.69           62.06           -123.31
31.82           62.48           -117.15
31.95           62.77           -110.33
32.08           62.96           -103.01
32.22           63.09           -95.39
32.35           63.15           -87.69
32.48           63.16           -80.19
32.62           63.12           -73.18
32.75           63.02           -67.03
32.88           62.82           -62.09
33.02           62.52           -58.68
33.16           62.08           -57.07
33.29           61.48           -57.42
33.43           60.74           -59.87
33.57           59.91           -64.44
33.70           59.03           -71.04
33.84           58.19           -79.50
33.98           57.46           -89.50
34.12           56.89           -100.65
34.26           56.51           -112.43
34.40           56.28           -124.31
34.54           56.17           -135.79
34.69           56.13           -146.40
34.83           56.13           -155.71
34.97           56.15           -163.33
35.12           56.16           -169.00
35.26           56.17           -172.62
35.41           56.16           -174.21
35.55           56.14           -173.95
35.70           56.11           -172.17
35.84           56.08           -169.25
35.99           56.04           -165.58
36.14           56.02           -161.58
36.29           56.03           -157.70
36.44           56.10           -154.38
36.59           56.25           -151.99
36.74           56.48           -150.79
36.89           56.80           -150.87
37.04           57.19           -152.21
37.19           57.63           -154.68
37.35           58.10           -158.10
37.50           58.57           -162.24
37.65           59.04           -166.83
37.81           59.50           -171.55
37.97           59.93           -176.08
38.12           60.34           179.90
38.28           60.72           176.57
38.44           61.08           174.05
38.59           61.41           172.35
38.75           61.73           171.43
38.91           62.02           171.21
39.07           62.30           171.55
39.23           62.57           172.28
39.39           62.83           173.17
39.56           63.08           173.97
39.72           63.35           174.48
39.88           63.62           174.54
40.05           63.91           174.04
40.21           64.22           172.94
40.38           64.55           171.20
40.54           64.90           168.87
40.71           65.26           166.01
40.88           65.63           162.74
41.04           66.00           159.24
41.21           66.35           155.65
41.38           66.67           152.14
41.55           66.96           148.83
41.72           67.21           145.83
41.90           67.42           143.23
42.07           67.59           141.08
42.24           67.73           139.39
42.42           67.84           138.15
42.59           67.93           137.32
42.76           67.99           136.86
42.94           68.04           136.67
43.12           68.08           136.69
43.29           68.11           136.84
43.47           68.15           137.04
43.65           68.18           137.21
43.83           68.22           137.27
44.01           68.28           137.14
44.19           68.34           136.75
44.37           68.42           136.05
44.56           68.49           134.99
44.74           68.56           133.57
44.92           68.63           131.77
45.11           68.69           129.64
45.29           68.73           127.20
45.48           68.77           124.53
45.67           68.79           121.68
45.86           68.80           118.75
46.04           68.80           115.78
46.23           68.78           112.84
46.42           68.75           109.95
46.61           68.71           107.17
46.81           68.66           104.51
47.00           68.63           101.99
47.19           68.61           99.61
47.39           68.62           97.38
47.58           68.66           95.29
47.78           68.73           93.34
47.97           68.84           91.53
48.17           68.97           89.83
48.37           69.11           88.25
48.57           69.28           86.75
48.77           69.44           85.32
48.97           69.61           83.94
49.17           69.77           82.59
49.37           69.92           81.24
49.58           70.07           79.87
49.78           70.21           78.45
49.98           70.34           76.97
50.19           70.47           75.41
50.40           70.59           73.76
50.60           70.71           72.04
50.81           70.83           70.25
51.02           70.94           68.43
51.23           71.06           66.60
51.44           71.17           64.83
51.65           71.29           63.13
51.86           71.41           61.55
52.08           71.53           60.09
52.29           71.65           58.77
52.51           71.77           57.61
52.72           71.87           56.60
52.94           71.96           55.73
53.16           72.04           55.01
53.38           72.09           54.42
53.60           72.14           53.94
53.82           72.16           53.54
54.04           72.18           53.15
54.26           72.19           52.73
54.48           72.20           52.20
54.71           72.21           51.48
54.93           72.23           50.53
55.16           72.26           49.32
55.39           72.31           47.83
55.61           72.36           46.08
55.84           72.44           44.09
56.07           72.54           41.92
56.30           72.65           39.61
56.53           72.80           37.23
56.77           72.96           34.85
57.00           73.15           32.52
57.23           73.36           30.32
57.47           73.59           28.31
57.71           73.82           26.51
57.94           74.05           24.94
58.18           74.26           23.59
58.42           74.45           22.41
58.66           74.61           21.36
58.90           74.74           20.36
59.15           74.83           19.39
59.39           74.88           18.39
59.63           74.91           17.35
59.88           74.92           16.25
60.12           74.90           15.10
60.37           74.88           13.87
60.62           74.84           12.55
60.87           74.78           11.10
61.12           74.72           9.51
61.37           74.64           7.76
61.62           74.56           5.86
61.88           74.49           3.83
62.13           74.43           1.74
62.39           74.39           -0.35
62.64           74.40           -2.38
62.90           74.45           -4.30
63.16           74.54           -6.08
63.42           74.68           -7.74
63.68           74.86           -9.33
63.94           75.06           -10.91
64.21           75.27           -12.55
64.47           75.50           -14.32
64.74           75.72           -16.24
65.00           75.94           -18.33
65.27           76.15           -20.54
65.54           76.35           -22.82
65.81           76.52           -25.10
66.08           76.68           -27.34
66.35           76.82           -29.54
66.62           76.95           -31.70
66.90           77.07           -33.87
67.17           77.20           -36.09
67.45           77.33           -38.39
67.73           77.47           -40.79
68.00           77.62           -43.27
68.28           77.77           -45.81
68.56           77.90           -48.39
68.85           78.00           -51.02
69.13           78.08           -53.68
69.41           78.13           -56.42
69.70           78.18           -59.28
69.99           78.22           -62.30
70.27           78.27           -65.50
70.56           78.33           -68.90
70.85           78.40           -72.47
71.14           78.48           -76.19
71.44           78.54           -79.99
71.73           78.57           -83.84
72.03           78.58           -87.69
72.32           78.56           -91.53
72.62           78.50           -95.36
72.92           78.44           -99.18
73.22           78.37           -103.01
73.52           78.30           -106.83
73.82           78.23           -110.64
74.13           78.16           -114.43
74.43           78.08           -118.18
74.74           77.99           -121.89
75.04           77.86           -125.54
75.35           77.69           -129.13
75.66           77.48           -132.67
75.97           77.22           -136.15
76.29           76.91           -139.58
76.60           76.57           -142.93
76.92           76.21           -146.20
77.23           75.82           -149.36
77.55           75.43           -152.37
