Freq[Hz]        [dBSPL]         Phase[Deg]
10.00           103.04          150.61
10.04           102.96          150.63
10.08           102.89          150.51
10.12           102.83          150.25
10.17           102.77          149.84
10.21           102.72          149.30
10.25           102.68          148.62
10.29           102.65          147.80
10.33           102.53          146.86
10.38           102.43          145.53
10.42           102.36          143.79
10.46           102.32          141.67
10.50           102.30          139.15
10.55           102.30          136.25
10.59           102.32          132.98
10.64           102.37          129.34
10.68           102.43          125.35
10.72           102.51          121.02
10.77           102.60          116.36
10.81           102.71          111.40
10.86           102.82          106.13
10.90           102.95          100.58
10.95           103.09          94.76
10.99           103.24          88.69
11.04           103.39          82.38
11.08           103.54          75.84
11.13           103.69          69.10
11.17           103.85          62.16
11.22           104.00          55.06
11.26           104.15          47.79
11.31           104.29          40.39
11.36           104.43          32.87
11.40           104.56          25.25
11.45           104.68          17.55
11.50           104.78          9.78
11.55           104.87          1.97
11.59           104.95          -5.86
11.64           105.02          -13.70
11.69           105.06          -21.52
11.74           105.10          -29.32
11.78           105.11          -37.06
11.83           105.11          -44.74
11.88           105.10          -52.34
11.93           105.06          -59.84
11.98           105.01          -67.22
12.03           104.95          -74.47
12.08           104.87          -81.57
12.13           104.78          -88.51
12.18           104.67          -95.26
12.23           104.55          -101.82
12.28           104.43          -108.16
12.33           104.29          -114.27
12.38           104.14          -120.14
12.43           103.99          -125.74
12.48           103.84          -131.06
12.53           103.68          -136.07
12.58           103.52          -140.77
12.64           103.35          -145.12
12.69           103.19          -149.12
12.74           103.04          -152.74
12.79           102.89          -155.95
12.85           102.75          -158.75
12.90           102.61          -161.11
12.95           102.49          -163.01
13.00           102.38          -164.45
13.06           102.29          -165.42
13.11           102.20          -165.91
13.17           102.14          -165.92
13.22           102.08          -165.47
13.27           102.04          -164.54
13.33           102.01          -163.17
13.38           101.99          -161.37
13.44           101.98          -159.16
13.49           101.97          -156.56
13.55           101.97          -153.61
13.61           101.96          -150.34
13.66           101.94          -146.80
13.72           101.92          -143.02
13.77           101.88          -139.06
13.83           101.82          -134.96
13.89           101.75          -130.76
13.94           101.65          -126.51
14.00           101.52          -122.27
14.06           101.37          -118.08
14.12           101.18          -113.99
14.18           100.95          -110.06
14.23           100.69          -106.35
14.29           100.39          -102.90
14.35           100.05          -99.77
14.41           99.66           -97.00
14.47           99.23           -94.63
14.53           98.75           -92.70
14.59           98.21           -91.22
14.65           97.63           -90.24
14.71           96.98           -89.74
14.77           96.28           -89.76
14.83           95.52           -90.28
14.89           94.70           -91.31
14.95           93.81           -92.83
15.01           92.85           -94.82
15.08           91.83           -97.26
15.14           90.74           -100.11
15.20           89.60           -103.34
15.26           88.42           -106.90
15.33           87.19           -110.74
15.39           85.94           -114.83
15.45           84.67           -119.12
15.52           83.40           -123.55
15.58           82.14           -128.09
15.64           80.90           -132.69
15.71           79.72           -137.29
15.77           78.60           -141.84
15.84           77.58           -146.30
15.90           76.70           -150.62
15.97           75.98           -154.76
16.03           75.46           -158.68
16.10           75.17           -162.33
16.17           75.14           -165.69
16.23           75.37           -168.72
16.30           75.84           -171.39
16.37           76.53           -173.66
16.43           77.41           -175.51
16.50           78.42           -176.92
16.57           79.55           -177.86
16.64           80.76           -178.32
16.70           82.02           -178.28
16.77           83.31           -177.72
16.84           84.60           -176.63
16.91           85.88           -174.99
16.98           87.12           -172.78
17.05           88.32           -169.99
17.12           89.46           -166.61
17.19           90.52           -162.61
17.26           91.50           -157.99
17.33           92.40           -152.75
17.40           93.22           -146.90
17.48           93.97           -140.46
17.55           94.63           -133.44
17.62           95.23           -125.88
17.69           95.75           -117.81
17.77           96.22           -109.28
17.84           96.61           -100.35
17.91           96.95           -91.08
17.99           97.23           -81.53
18.06           97.45           -71.80
18.13           97.61           -61.96
18.21           97.72           -52.12
18.28           97.78           -42.39
18.36           97.79           -32.86
18.43           97.75           -23.65
18.51           97.66           -14.87
18.59           97.53           -6.63
18.66           97.36           0.98
18.74           97.15           7.85
18.82           96.90           13.94
18.89           96.63           19.18
18.97           96.32           23.54
19.05           95.99           27.00
19.13           95.64           29.55
19.21           95.27           31.21
19.29           94.89           32.01
19.37           94.50           31.99
19.44           94.10           31.24
19.52           93.69           29.83
19.61           93.28           27.87
19.69           92.86           25.49
19.77           92.44           22.84
19.85           92.01           20.05
19.93           91.57           17.29
20.01           91.13           14.70
20.09           90.68           12.44
20.18           90.22           10.63
20.26           89.75           9.38
20.34           89.27           8.81
20.43           88.78           8.99
20.51           88.28           10.00
20.59           87.77           11.89
20.68           87.25           14.71
20.76           86.72           18.49
20.85           86.18           23.22
20.94           85.63           28.91
21.02           85.07           35.53
21.11           84.51           43.03
21.20           83.94           51.35
21.28           83.37           60.42
21.37           82.80           70.15
21.46           82.23           80.46
21.55           81.67           91.26
21.63           81.11           102.47
21.72           80.56           113.98
21.81           80.02           125.69
21.90           79.49           137.51
21.99           78.98           149.33
22.08           78.49           161.03
22.17           78.01           172.51
22.27           77.56           -176.36
22.36           77.12           -165.70
22.45           76.71           -155.64
22.54           76.31           -146.30
22.63           75.94           -137.83
22.73           75.58           -130.37
22.82           75.25           -124.06
22.91           74.93           -119.03
23.01           74.62           -115.40
23.10           74.33           -113.24
23.20           74.04           -112.62
23.29           73.76           -113.56
23.39           73.48           -116.06
23.49           73.21           -120.10
23.58           72.92           -125.62
23.68           72.63           -132.54
23.78           72.33           -140.73
23.87           72.01           -150.05
23.97           71.67           -160.31
24.07           71.31           -171.30
24.17           70.91           177.23
24.27           70.48           165.55
24.37           70.01           153.96
24.47           69.51           142.70
24.57           68.95           132.02
24.67           68.35           122.13
24.77           67.70           113.22
24.88           66.98           105.43
24.98           66.21           98.92
25.08           65.37           93.79
25.18           64.46           90.11
25.29           63.48           87.94
25.39           62.43           87.31
25.50           61.32           88.20
25.60           60.15           90.58
25.71           58.97           94.39
25.81           57.84           99.51
25.92           56.85           105.84
26.02           56.15           113.26
26.13           55.89           121.63
26.24           56.22           130.84
26.35           57.16           140.74
26.45           58.60           151.19
26.56           60.38           162.05
26.67           62.33           173.16
26.78           64.32           -175.64
26.89           66.28           -164.51
27.00           68.11           -153.62
27.11           69.78           -143.15
27.23           71.25           -133.27
27.34           72.51           -124.14
27.45           73.58           -115.90
27.56           74.45           -108.69
27.68           75.16           -102.61
27.79           75.72           -97.77
27.90           76.14           -94.24
28.02           76.45           -92.09
28.14           76.67           -91.36
28.25           76.80           -92.09
28.37           76.86           -94.28
28.48           76.85           -97.93
28.60           76.76           -103.00
28.72           76.59           -109.43
28.84           76.31           -117.11
28.96           75.92           -125.93
29.07           75.40           -135.72
29.19           74.73           -146.33
29.31           73.92           -157.56
29.43           72.94           -169.20
29.56           71.81           178.96
29.68           70.51           167.20
29.80           69.06           155.77
29.92           67.47           144.98
30.04           65.74           135.12
30.17           63.91           126.48
30.29           62.02           119.29
30.42           60.14           113.74
30.54           58.37           109.99
30.67           56.85           108.14
30.79           55.78           108.22
30.92           55.28           110.22
31.05           55.39           114.07
31.18           55.98           119.63
31.30           56.83           126.72
31.43           57.78           135.09
31.56           58.71           144.49
31.69           59.58           154.64
31.82           60.35           165.30
31.95           61.01           176.23
32.08           61.57           -172.77
32.22           62.02           -161.82
32.35           62.39           -150.98
32.48           62.67           -140.28
32.62           62.87           -129.65
32.75           63.00           -118.96
32.88           63.05           -108.07
33.02           63.04           -96.80
33.16           62.95           -85.03
33.29           62.78           -72.64
33.43           62.52           -59.55
33.57           62.16           -45.77
33.70           61.72           -31.38
33.84           61.17           -16.55
33.98           60.53           -1.54
34.12           59.80           13.26
34.26           58.97           27.42
34.40           58.06           40.47
34.54           57.07           52.02
34.69           56.02           61.74
34.83           54.92           69.34
34.97           53.79           74.62
35.12           52.67           77.53
35.26           51.58           78.15
35.41           50.57           76.74
35.55           49.68           73.72
35.70           48.99           69.66
35.84           48.58           65.15
35.99           48.53           60.78
36.14           48.89           57.10
36.29           49.65           54.66
36.44           50.76           53.94
36.59           52.09           55.34
36.74           53.54           59.02
36.89           55.01           65.00
37.04           56.41           73.09
37.19           57.69           82.93
37.35           58.81           94.12
37.50           59.79           106.22
37.65           60.63           118.73
37.81           61.34           131.09
37.97           61.93           142.73
38.12           62.43           153.15
38.28           62.85           161.98
38.44           63.20           169.03
38.59           63.49           174.21
38.75           63.72           177.55
38.91           63.90           179.13
39.07           64.02           179.13
39.23           64.09           177.81
39.39           64.10           175.51
39.56           64.06           172.60
39.72           63.98           169.42
39.88           63.88           166.21
40.05           63.77           163.17
40.21           63.68           160.43
40.38           63.63           158.08
40.54           63.63           156.15
40.71           63.71           154.63
40.88           63.86           153.45
41.04           64.08           152.48
41.21           64.37           151.64
41.38           64.72           150.84
41.55           65.10           150.00
41.72           65.49           149.10
41.90           65.90           148.09
42.07           66.30           146.97
42.24           66.69           145.72
42.42           67.06           144.38
42.59           67.40           142.97
42.76           67.72           141.52
42.94           68.00           140.05
43.12           68.25           138.57
43.29           68.47           137.09
43.47           68.64           135.63
43.65           68.78           134.18
43.83           68.89           132.73
44.01           68.95           131.27
44.19           68.98           129.79
44.37           68.97           128.28
44.56           68.93           126.72
44.74           68.86           125.11
44.92           68.76           123.43
45.11           68.63           121.67
45.29           68.49           119.82
45.48           68.33           117.87
45.67           68.16           115.81
45.86           67.99           113.63
46.04           67.83           111.33
46.23           67.68           108.94
46.42           67.57           106.46
46.61           67.48           103.92
46.81           67.44           101.38
47.00           67.44           98.87
47.19           67.48           96.46
47.39           67.56           94.19
47.58           67.67           92.09
47.78           67.81           90.21
47.97           67.98           88.55
48.17           68.17           87.13
48.37           68.38           85.94
48.57           68.60           84.98
48.77           68.84           84.21
48.97           69.09           83.63
49.17           69.35           83.18
49.37           69.61           82.82
49.58           69.87           82.49
49.78           70.11           82.14
49.98           70.34           81.68
50.19           70.53           81.04
50.40           70.70           80.17
50.60           70.85           79.06
50.81           70.96           77.68
51.02           71.06           76.08
51.23           71.14           74.30
51.44           71.20           72.41
51.65           71.25           70.49
51.86           71.28           68.58
52.08           71.30           66.73
52.29           71.31           64.96
52.51           71.30           63.28
52.72           71.28           61.67
52.94           71.24           60.10
53.16           71.20           58.57
53.38           71.15           57.06
53.60           71.10           55.57
53.82           71.07           54.10
54.04           71.04           52.65
54.26           71.02           51.21
54.48           71.02           49.77
54.71           71.03           48.30
54.93           71.06           46.77
55.16           71.10           45.16
55.39           71.17           43.46
55.61           71.27           41.67
55.84           71.42           39.81
56.07           71.62           37.90
56.30           71.87           35.97
56.53           72.16           34.01
56.77           72.48           32.00
57.00           72.79           29.91
57.23           73.07           27.67
57.47           73.32           25.25
57.71           73.52           22.63
57.94           73.69           19.84
58.18           73.83           16.94
58.42           73.94           14.03
58.66           74.04           11.26
58.90           74.13           8.71
59.15           74.20           6.46
59.39           74.26           4.52
59.63           74.31           2.89
59.88           74.33           1.51
60.12           74.32           0.32
60.37           74.29           -0.70
60.62           74.26           -1.57
60.87           74.22           -2.24
61.12           74.21           -2.73
61.37           74.22           -3.01
61.62           74.26           -3.11
61.88           74.32           -3.12
62.13           74.40           -3.13
62.39           74.49           -3.29
62.64           74.58           -3.69
62.90           74.66           -4.40
63.16           74.74           -5.44
63.42           74.82           -6.77
63.68           74.90           -8.35
63.94           75.00           -10.08
64.21           75.11           -11.91
64.47           75.25           -13.80
64.74           75.43           -15.73
65.00           75.63           -17.70
65.27           75.86           -19.70
65.54           76.09           -21.73
65.81           76.32           -23.78
66.08           76.53           -25.85
66.35           76.73           -27.93
66.62           76.92           -30.05
66.90           77.09           -32.21
67.17           77.27           -34.45
67.45           77.45           -36.79
67.73           77.63           -39.24
68.00           77.80           -41.81
68.28           77.97           -44.48
68.56           78.11           -47.26
68.85           78.23           -50.12
69.13           78.32           -53.08
69.41           78.39           -56.14
69.70           78.43           -59.28
69.99           78.47           -62.53
70.27           78.51           -65.88
70.56           78.54           -69.32
70.85           78.59           -72.85
71.14           78.63           -76.47
71.44           78.67           -80.18
71.73           78.71           -83.97
72.03           78.73           -87.81
72.32           78.73           -91.68
72.62           78.72           -95.55
72.92           78.68           -99.39
73.22           78.63           -103.16
73.52           78.56           -106.88
73.82           78.48           -110.57
74.13           78.37           -114.27
74.43           78.25           -118.04
74.74           78.10           -121.89
75.04           77.93           -125.79
75.35           77.72           -129.69
75.66           77.48           -133.47
75.97           77.20           -137.03
76.29           76.87           -140.33
76.60           76.50           -143.34
76.92           76.10           -146.13
77.23           75.66           -148.78
