Freq[Hz]        [dBSPL]         Phase[Deg]
10.00           105.15          -94.15
10.04           104.96          -95.14
10.08           104.76          -96.15
10.12           104.56          -97.18
10.17           104.36          -98.21
10.21           104.16          -99.25
10.25           103.96          -100.30
10.29           103.76          -101.36
10.33           103.30          -103.40
10.38           102.81          -105.48
10.42           102.29          -107.59
10.46           101.74          -109.71
10.50           101.16          -111.85
10.55           100.55          -114.00
10.59           99.92           -116.14
10.64           99.26           -118.29
10.68           98.58           -120.42
10.72           97.88           -122.53
10.77           97.16           -124.62
10.81           96.43           -126.67
10.86           95.69           -128.68
10.90           94.94           -130.64
10.95           94.18           -132.55
10.99           93.42           -134.40
11.04           92.67           -136.17
11.08           91.92           -137.87
11.13           91.19           -139.47
11.17           90.47           -140.98
11.22           89.77           -142.39
11.26           89.10           -143.67
11.31           88.47           -144.84
11.36           87.87           -145.87
11.40           87.32           -146.76
11.45           86.83           -147.50
11.50           86.40           -148.07
11.55           86.03           -148.49
11.59           85.75           -148.73
11.64           85.55           -148.79
11.69           85.44           -148.68
11.74           85.43           -148.39
11.78           85.50           -147.93
11.83           85.68           -147.30
11.88           85.94           -146.50
11.93           86.29           -145.54
11.98           86.71           -144.43
12.03           87.21           -143.18
12.08           87.77           -141.80
12.13           88.38           -140.31
12.18           89.04           -138.72
12.23           89.74           -137.04
12.28           90.46           -135.31
12.33           91.21           -133.52
12.38           91.97           -131.70
12.43           92.74           -129.87
12.48           93.51           -128.04
12.53           94.27           -126.24
12.58           95.02           -124.49
12.64           95.75           -122.79
12.69           96.45           -121.18
12.74           97.13           -119.67
12.79           97.76           -118.29
12.85           98.36           -117.06
12.90           98.91           -115.99
12.95           99.41           -115.11
13.00           99.86           -114.43
13.06           100.27          -113.96
13.11           100.62          -113.73
13.17           100.93          -113.73
13.22           101.19          -113.98
13.27           101.40          -114.48
13.33           101.57          -115.23
13.38           101.68          -116.23
13.44           101.76          -117.49
13.49           101.78          -118.98
13.55           101.77          -120.72
13.61           101.71          -122.68
13.66           101.60          -124.85
13.72           101.45          -127.21
13.77           101.27          -129.76
13.83           101.05          -132.48
13.89           100.79          -135.34
13.94           100.50          -138.34
14.00           100.18          -141.45
14.06           99.83           -144.66
14.12           99.46           -147.95
14.18           99.07           -151.31
14.23           98.67           -154.70
14.29           98.25           -158.12
14.35           97.83           -161.55
14.41           97.41           -164.97
14.47           96.99           -168.36
14.53           96.58           -171.72
14.59           96.18           -175.02
14.65           95.80           -178.28
14.71           95.44           178.53
14.77           95.11           175.41
14.83           94.81           172.36
14.89           94.53           169.37
14.95           94.29           166.46
15.01           94.08           163.62
15.08           93.91           160.83
15.14           93.76           158.09
15.20           93.64           155.40
15.26           93.55           152.74
15.33           93.49           150.09
15.39           93.44           147.45
15.45           93.42           144.81
15.52           93.41           142.16
15.58           93.41           139.47
15.64           93.43           136.75
15.71           93.46           133.97
15.77           93.50           131.12
15.84           93.54           128.20
15.90           93.59           125.18
15.97           93.64           122.07
16.03           93.70           118.84
16.10           93.75           115.48
16.17           93.81           112.00
16.23           93.86           108.37
16.30           93.92           104.60
16.37           93.97           100.66
16.43           94.03           96.56
16.50           94.08           92.29
16.57           94.14           87.83
16.64           94.19           83.19
16.70           94.25           78.37
16.77           94.32           73.34
16.84           94.38           68.11
16.91           94.45           62.68
16.98           94.53           57.04
17.05           94.62           51.18
17.12           94.72           45.10
17.19           94.82           38.79
17.26           94.94           32.26
17.33           95.07           25.51
17.40           95.20           18.53
17.48           95.35           11.36
17.55           95.50           3.98
17.62           95.66           -3.57
17.69           95.82           -11.27
17.77           95.97           -19.10
17.84           96.12           -27.04
17.91           96.26           -35.04
17.99           96.39           -43.08
18.06           96.49           -51.11
18.13           96.57           -59.08
18.21           96.62           -66.95
18.28           96.65           -74.66
18.36           96.63           -82.16
18.43           96.58           -89.39
18.51           96.48           -96.30
18.59           96.34           -102.83
18.66           96.15           -108.93
18.74           95.91           -114.56
18.82           95.62           -119.68
18.89           95.28           -124.26
18.97           94.89           -128.29
19.05           94.44           -131.74
19.13           93.93           -134.60
19.21           93.35           -136.89
19.29           92.71           -138.61
19.37           92.00           -139.78
19.44           91.21           -140.43
19.52           90.36           -140.58
19.61           89.42           -140.30
19.69           88.42           -139.62
19.77           87.36           -138.62
19.85           86.25           -137.36
19.93           85.11           -135.90
20.01           83.93           -134.31
20.09           82.76           -132.65
20.18           81.59           -130.98
20.26           80.45           -129.35
20.34           79.37           -127.81
20.43           78.36           -126.39
20.51           77.46           -125.12
20.59           76.68           -124.04
20.68           76.04           -123.16
20.76           75.54           -122.49
20.85           75.20           -122.04
20.94           75.00           -121.82
21.02           74.91           -121.81
21.11           74.92           -122.00
21.20           75.00           -122.35
21.28           75.12           -122.86
21.37           75.27           -123.48
21.46           75.42           -124.18
21.55           75.57           -124.93
21.63           75.69           -125.70
21.72           75.79           -126.46
21.81           75.86           -127.19
21.90           75.91           -127.85
21.99           75.92           -128.42
22.08           75.90           -128.88
22.17           75.84           -129.21
22.27           75.75           -129.37
22.36           75.63           -129.35
22.45           75.47           -129.13
22.54           75.29           -128.69
22.63           75.08           -128.00
22.73           74.85           -127.07
22.82           74.62           -125.86
22.91           74.41           -124.36
23.01           74.22           -122.57
23.10           74.08           -120.48
23.20           73.99           -118.09
23.29           73.97           -115.40
23.39           74.03           -112.41
23.49           74.15           -109.14
23.58           74.34           -105.61
23.68           74.57           -101.82
23.78           74.83           -97.81
23.87           75.10           -93.61
23.97           75.35           -89.25
24.07           75.58           -84.77
24.17           75.76           -80.21
24.27           75.89           -75.63
24.37           75.95           -71.07
24.47           75.95           -66.58
24.57           75.89           -62.20
24.67           75.78           -57.96
24.77           75.60           -53.90
24.88           75.37           -50.04
24.98           75.07           -46.40
25.08           74.69           -42.99
25.18           74.23           -39.84
25.29           73.68           -36.94
25.39           73.02           -34.29
25.50           72.25           -31.89
25.60           71.36           -29.72
25.71           70.35           -27.78
25.81           69.25           -26.03
25.92           68.10           -24.45
26.02           66.94           -23.04
26.13           65.85           -21.78
26.24           64.91           -20.65
26.35           64.24           -19.65
26.45           63.93           -18.77
26.56           64.04           -18.01
26.67           64.56           -17.37
26.78           65.42           -16.85
26.89           66.53           -16.47
27.00           67.77           -16.24
27.11           69.09           -16.16
27.23           70.41           -16.26
27.34           71.71           -16.51
27.45           72.95           -16.92
27.56           74.11           -17.44
27.68           75.18           -18.02
27.79           76.14           -18.59
27.90           76.99           -19.09
28.02           77.72           -19.39
28.14           78.33           -19.39
28.25           78.83           -18.94
28.37           79.20           -17.90
28.48           79.47           -16.08
28.60           79.64           -13.30
28.72           79.72           -9.42
28.84           79.73           -4.30
28.96           79.66           2.14
29.07           79.52           9.91
29.19           79.31           19.02
29.31           79.01           29.37
29.43           78.61           40.84
29.56           78.09           53.26
29.68           77.45           66.39
29.80           76.65           79.93
29.92           75.70           93.53
30.04           74.57           106.79
30.17           73.28           119.33
30.29           71.85           130.78
30.42           70.34           140.77
30.54           68.83           149.00
30.67           67.45           155.23
30.79           66.34           159.29
30.92           65.63           161.06
31.05           65.36           160.51
31.18           65.45           157.65
31.30           65.75           152.59
31.43           66.11           145.49
31.56           66.46           136.55
31.69           66.75           126.01
31.82           66.96           114.14
31.95           67.11           101.23
32.08           67.18           87.52
32.22           67.21           73.24
32.35           67.18           58.57
32.48           67.09           43.64
32.62           66.94           28.58
32.75           66.72           13.44
32.88           66.41           -1.74
33.02           65.99           -16.93
33.16           65.44           -32.11
33.29           64.74           -47.25
33.43           63.93           -62.34
33.57           63.03           -77.32
33.70           62.09           -92.10
33.84           61.18           -106.54
33.98           60.36           -120.47
34.12           59.72           -133.67
34.26           59.30           -145.88
34.40           59.13           -156.86
34.54           59.20           -166.40
34.69           59.47           -174.32
34.83           59.89           179.51
34.97           60.43           175.19
35.12           61.02           172.73
35.26           61.64           172.06
35.41           62.25           173.04
35.55           62.83           175.43
35.70           63.37           178.93
35.84           63.84           -176.79
35.99           64.24           -172.06
36.14           64.58           -167.18
36.29           64.86           -162.47
36.44           65.09           -158.21
36.59           65.27           -154.63
36.74           65.39           -151.87
36.89           65.48           -149.97
37.04           65.53           -148.88
37.19           65.54           -148.47
37.35           65.52           -148.60
37.50           65.47           -149.13
37.65           65.40           -149.87
37.81           65.31           -150.66
37.97           65.22           -151.31
38.12           65.15           -151.69
38.28           65.10           -151.76
38.44           65.09           -151.56
38.59           65.11           -151.21
38.75           65.16           -150.85
38.91           65.24           -150.61
39.07           65.34           -150.64
39.23           65.45           -151.06
39.39           65.57           -152.03
39.56           65.69           -153.67
39.72           65.81           -156.02
39.88           65.92           -159.03
40.05           66.03           -162.59
40.21           66.14           -166.56
40.38           66.24           -170.82
40.54           66.33           -175.21
40.71           66.40           -179.58
40.88           66.46           176.22
41.04           66.50           172.36
41.21           66.51           168.90
41.38           66.49           165.86
41.55           66.44           163.18
41.72           66.35           160.83
41.90           66.23           158.71
42.07           66.07           156.74
42.24           65.89           154.81
42.42           65.68           152.79
42.59           65.43           150.55
42.76           65.16           148.04
42.94           64.86           145.24
43.12           64.54           142.15
43.29           64.22           138.81
43.47           63.91           135.28
43.65           63.65           131.63
43.83           63.47           127.97
44.01           63.42           124.44
44.19           63.53           121.13
44.37           63.79           118.13
44.56           64.17           115.49
44.74           64.65           113.23
44.92           65.18           111.35
45.11           65.74           109.82
45.29           66.29           108.59
45.48           66.82           107.57
45.67           67.33           106.67
45.86           67.79           105.81
46.04           68.20           104.93
46.23           68.57           103.97
46.42           68.90           102.93
46.61           69.18           101.78
46.81           69.41           100.54
47.00           69.60           99.24
47.19           69.75           97.91
47.39           69.87           96.58
47.58           69.95           95.28
47.78           70.00           94.00
47.97           70.02           92.75
48.17           70.02           91.52
48.37           70.00           90.26
48.57           69.98           88.95
48.77           69.96           87.56
48.97           69.95           86.07
49.17           69.95           84.48
49.37           69.98           82.81
49.58           70.02           81.07
49.78           70.09           79.31
49.98           70.16           77.58
50.19           70.24           75.93
50.40           70.32           74.39
50.60           70.40           72.95
50.81           70.48           71.61
51.02           70.55           70.34
51.23           70.61           69.11
51.44           70.67           67.85
51.65           70.73           66.53
51.86           70.77           65.14
52.08           70.82           63.67
52.29           70.85           62.14
52.51           70.88           60.55
52.72           70.91           58.95
52.94           70.95           57.36
53.16           70.99           55.79
53.38           71.05           54.21
53.60           71.13           52.62
53.82           71.23           51.00
54.04           71.36           49.34
54.26           71.51           47.64
54.48           71.69           45.93
54.71           71.89           44.25
54.93           72.10           42.68
55.16           72.32           41.26
55.39           72.52           40.04
55.61           72.71           39.05
55.84           72.86           38.30
56.07           72.98           37.72
56.30           73.07           37.24
56.53           73.12           36.74
56.77           73.14           36.13
57.00           73.14           35.29
57.23           73.12           34.13
57.47           73.07           32.61
57.71           73.01           30.75
57.94           72.92           28.61
58.18           72.82           26.27
58.42           72.71           23.85
58.66           72.59           21.44
58.90           72.48           19.11
59.15           72.39           16.87
59.39           72.33           14.71
59.63           72.33           12.58
59.88           72.37           10.46
60.12           72.46           8.31
60.37           72.59           6.16
60.62           72.76           4.07
60.87           72.95           2.14
61.12           73.16           0.43
61.37           73.38           -0.98
61.62           73.61           -2.08
61.88           73.85           -2.92
62.13           74.08           -3.58
62.39           74.32           -4.19
62.64           74.56           -4.88
62.90           74.78           -5.73
63.16           74.99           -6.78
63.42           75.19           -8.05
63.68           75.38           -9.49
63.94           75.55           -11.01
64.21           75.72           -12.55
64.47           75.89           -14.06
64.74           76.05           -15.52
65.00           76.21           -16.96
65.27           76.37           -18.46
65.54           76.52           -20.10
65.81           76.67           -21.97
66.08           76.82           -24.12
66.35           76.96           -26.54
66.62           77.10           -29.19
66.90           77.24           -32.00
67.17           77.39           -34.87
67.45           77.55           -37.74
67.73           77.71           -40.57
68.00           77.87           -43.38
68.28           78.03           -46.22
68.56           78.18           -49.14
68.85           78.32           -52.19
69.13           78.44           -55.38
69.41           78.56           -58.69
69.70           78.66           -62.09
69.99           78.76           -65.50
70.27           78.87           -68.89
70.56           78.96           -72.24
70.85           79.05           -75.59
71.14           79.12           -78.97
71.44           79.15           -82.48
71.73           79.13           -86.16
72.03           79.07           -90.02
72.32           78.98           -94.04
72.62           78.86           -98.15
72.92           78.73           -102.24
73.22           78.60           -106.26
73.52           78.46           -110.16
73.82           78.33           -113.95
74.13           78.17           -117.69
74.43           77.99           -121.44
74.74           77.77           -125.22
75.04           77.50           -129.02
75.35           77.19           -132.80
75.66           76.86           -136.45
75.97           76.53           -139.91
76.29           76.22           -143.12
