Freq[Hz]        [dBSPL]         Phase[Deg]
10.00           103.22          55.67
10.04           103.09          57.64
10.08           102.96          59.69
10.12           102.83          61.82
10.17           102.70          64.02
10.21           102.56          66.29
10.25           102.43          68.63
10.29           102.30          71.02
10.33           102.00          75.44
10.38           101.70          80.05
10.42           101.39          84.84
10.46           101.06          89.81
10.50           100.73          94.94
10.55           100.39          100.21
10.59           100.04          105.61
10.64           99.68           111.12
10.68           99.32           116.71
10.72           98.96           122.36
10.77           98.59           128.07
10.81           98.21           133.79
10.86           97.84           139.51
10.90           97.47           145.20
10.95           97.09           150.85
10.99           96.72           156.42
11.04           96.36           161.90
11.08           96.00           167.25
11.13           95.64           172.45
11.17           95.30           177.47
11.22           94.96           -177.71
11.26           94.64           -173.13
11.31           94.33           -168.80
11.36           94.03           -164.77
11.40           93.76           -161.06
11.45           93.50           -157.70
11.50           93.26           -154.72
11.55           93.05           -152.14
11.59           92.86           -149.98
11.64           92.70           -148.27
11.69           92.57           -147.02
11.74           92.46           -146.24
11.78           92.39           -145.94
11.83           92.34           -146.13
11.88           92.33           -146.81
11.93           92.34           -147.99
11.98           92.39           -149.66
12.03           92.46           -151.80
12.08           92.56           -154.43
12.13           92.68           -157.51
12.18           92.83           -161.04
12.23           93.00           -164.99
12.28           93.19           -169.36
12.33           93.39           -174.12
12.38           93.62           -179.25
12.43           93.86           175.26
12.48           94.11           169.43
12.53           94.38           163.29
12.58           94.65           156.85
12.64           94.93           150.13
12.69           95.22           143.15
12.74           95.52           135.95
12.79           95.81           128.53
12.85           96.11           120.92
12.90           96.40           113.15
12.95           96.70           105.24
13.00           96.98           97.21
13.06           97.27           89.08
13.11           97.54           80.87
13.17           97.81           72.61
13.22           98.06           64.32
13.27           98.31           56.01
13.33           98.54           47.70
13.38           98.76           39.42
13.44           98.97           31.19
13.49           99.16           23.02
13.55           99.34           14.92
13.61           99.50           6.93
13.66           99.64           -0.95
13.72           99.76           -8.70
13.77           99.86           -16.30
13.83           99.94           -23.73
13.89           100.00          -30.98
13.94           100.04          -38.02
14.00           100.06          -44.85
14.06           100.05          -51.43
14.12           100.02          -57.75
14.18           99.96           -63.79
14.23           99.88           -69.53
14.29           99.76           -74.94
14.35           99.63           -80.01
14.41           99.46           -84.73
14.47           99.26           -89.07
14.53           99.04           -93.03
14.59           98.78           -96.60
14.65           98.50           -99.76
14.71           98.19           -102.53
14.77           97.85           -104.88
14.83           97.49           -106.83
14.89           97.10           -108.39
14.95           96.68           -109.55
15.01           96.23           -110.33
15.08           95.77           -110.73
15.14           95.29           -110.79
15.20           94.79           -110.51
15.26           94.28           -109.92
15.33           93.77           -109.03
15.39           93.25           -107.88
15.45           92.75           -106.47
15.52           92.25           -104.83
15.58           91.76           -102.99
15.64           91.31           -100.96
15.71           90.88           -98.78
15.77           90.50           -96.46
15.84           90.16           -94.04
15.90           89.89           -91.54
15.97           89.68           -88.98
16.03           89.54           -86.39
16.10           89.47           -83.81
16.17           89.49           -81.27
16.23           89.58           -78.78
16.30           89.75           -76.40
16.37           90.00           -74.14
16.43           90.31           -72.04
16.50           90.68           -70.13
16.57           91.09           -68.46
16.64           91.56           -67.06
16.70           92.05           -65.96
16.77           92.56           -65.20
16.84           93.09           -64.82
16.91           93.62           -64.87
16.98           94.15           -65.38
17.05           94.67           -66.39
17.12           95.18           -67.95
17.19           95.66           -70.10
17.26           96.11           -72.86
17.33           96.53           -76.25
17.40           96.92           -80.30
17.48           97.27           -84.99
17.55           97.58           -90.32
17.62           97.86           -96.27
17.69           98.09           -102.82
17.77           98.28           -109.92
17.84           98.42           -117.54
17.91           98.52           -125.60
17.99           98.58           -134.04
18.06           98.59           -142.78
18.13           98.56           -151.72
18.21           98.48           -160.75
18.28           98.35           -169.77
18.36           98.18           -178.66
18.43           97.96           172.70
18.51           97.69           164.43
18.59           97.37           156.65
18.66           97.01           149.47
18.74           96.60           142.98
18.82           96.14           137.26
18.89           95.63           132.37
18.97           95.07           128.36
19.05           94.46           125.27
19.13           93.81           123.10
19.21           93.11           121.85
19.29           92.36           121.51
19.37           91.57           122.03
19.44           90.73           123.36
19.52           89.85           125.42
19.61           88.94           128.12
19.69           88.00           131.35
19.77           87.04           134.97
19.85           86.07           138.85
19.93           85.11           142.85
20.01           84.17           146.83
20.09           83.25           150.65
20.18           82.39           154.22
20.26           81.60           157.42
20.34           80.89           160.17
20.43           80.29           162.41
20.51           79.80           164.08
20.59           79.45           165.14
20.68           79.23           165.58
20.76           79.14           165.40
20.85           79.15           164.60
20.94           79.27           163.22
21.02           79.46           161.32
21.11           79.70           158.96
21.20           79.96           156.23
21.28           80.24           153.25
21.37           80.50           150.11
21.46           80.75           146.94
21.55           80.95           143.85
21.63           81.12           140.92
21.72           81.24           138.25
21.81           81.31           135.93
21.90           81.34           134.03
21.99           81.31           132.62
22.08           81.23           131.76
22.17           81.10           131.50
22.27           80.92           131.90
22.36           80.67           132.97
22.45           80.36           134.76
22.54           79.98           137.28
22.63           79.54           140.53
22.73           79.02           144.51
22.82           78.43           149.22
22.91           77.78           154.65
23.01           77.06           160.77
23.10           76.27           167.55
23.20           75.43           174.97
23.29           74.53           -177.03
23.39           73.58           -168.49
23.49           72.58           -159.48
23.58           71.54           -150.05
23.68           70.47           -140.29
23.78           69.37           -130.28
23.87           68.25           -120.11
23.97           67.13           -109.89
24.07           66.00           -99.72
24.17           64.89           -89.74
24.27           63.81           -80.07
24.37           62.77           -70.83
24.47           61.80           -62.13
24.57           60.91           -54.06
24.67           60.13           -46.68
24.77           59.49           -40.06
24.88           59.00           -34.21
24.98           58.68           -29.16
25.08           58.55           -24.90
25.18           58.59           -21.40
25.29           58.81           -18.61
25.39           59.18           -16.45
25.50           59.67           -14.85
25.60           60.27           -13.67
25.71           60.95           -12.79
25.81           61.68           -12.07
25.92           62.45           -11.38
26.02           63.24           -10.61
26.13           64.03           -9.68
26.24           64.81           -8.54
26.35           65.58           -7.16
26.45           66.32           -5.51
26.56           67.02           -3.61
26.67           67.67           -1.51
26.78           68.27           0.73
26.89           68.82           3.01
27.00           69.29           5.23
27.11           69.70           7.23
27.23           70.05           8.85
27.34           70.32           9.96
27.45           70.53           10.41
27.56           70.67           10.12
27.68           70.75           9.02
27.79           70.78           7.07
27.90           70.75           4.28
28.02           70.66           0.68
28.14           70.52           -3.68
28.25           70.32           -8.68
28.37           70.06           -14.19
28.48           69.74           -20.04
28.60           69.37           -26.02
28.72           68.95           -31.94
28.84           68.48           -37.58
28.96           67.99           -42.77
29.07           67.49           -47.35
29.19           67.00           -51.21
29.31           66.54           -54.26
29.43           66.12           -56.48
29.56           65.76           -57.83
29.68           65.49           -58.37
29.80           65.30           -58.16
29.92           65.21           -57.32
30.04           65.21           -55.98
30.17           65.30           -54.31
30.29           65.47           -52.47
30.42           65.71           -50.66
30.54           66.01           -49.02
30.67           66.34           -47.69
30.79           66.71           -46.79
30.92           67.08           -46.39
31.05           67.45           -46.57
31.18           67.81           -47.34
31.30           68.15           -48.71
31.43           68.44           -50.67
31.56           68.70           -53.16
31.69           68.90           -56.12
31.82           69.07           -59.45
31.95           69.18           -63.07
32.08           69.25           -66.85
32.22           69.27           -70.71
32.35           69.25           -74.55
32.48           69.19           -78.28
32.62           69.08           -81.83
32.75           68.93           -85.12
32.88           68.74           -88.07
33.02           68.51           -90.65
33.16           68.24           -92.84
33.29           67.93           -94.66
33.43           67.60           -96.14
33.57           67.25           -97.36
33.70           66.89           -98.40
33.84           66.51           -99.38
33.98           66.12           -100.45
34.12           65.72           -101.75
34.26           65.31           -103.48
34.40           64.88           -105.81
34.54           64.44           -108.87
34.69           63.98           -112.76
34.83           63.49           -117.54
34.97           62.96           -123.21
35.12           62.39           -129.74
35.26           61.76           -137.00
35.41           61.06           -144.83
35.55           60.27           -152.98
35.70           59.40           -161.15
35.84           58.44           -169.02
35.99           57.39           -176.34
36.14           56.29           177.13
36.29           55.24           171.59
36.44           54.39           167.20
36.59           53.91           164.05
36.74           53.93           162.12
36.89           54.39           161.27
37.04           55.13           161.29
37.19           55.96           161.86
37.35           56.77           162.70
37.50           57.51           163.51
37.65           58.14           164.01
37.81           58.69           163.94
37.97           59.15           163.07
38.12           59.55           161.23
38.28           59.88           158.39
38.44           60.18           154.64
38.59           60.44           150.16
38.75           60.67           145.19
38.91           60.88           139.96
39.07           61.06           134.74
39.23           61.22           129.80
39.39           61.36           125.46
39.56           61.49           121.99
39.72           61.63           119.58
39.88           61.79           118.31
40.05           61.98           118.19
40.21           62.18           119.14
40.38           62.41           121.07
40.54           62.66           123.83
40.71           62.91           127.22
40.88           63.16           130.98
41.04           63.41           134.84
41.21           63.65           138.57
41.38           63.88           141.99
41.55           64.09           144.96
41.72           64.29           147.40
41.90           64.47           149.25
42.07           64.64           150.50
42.24           64.80           151.16
42.42           64.94           151.30
42.59           65.08           151.02
42.76           65.21           150.38
42.94           65.33           149.44
43.12           65.46           148.25
43.29           65.59           146.84
43.47           65.72           145.26
43.65           65.85           143.52
43.83           65.99           141.64
44.01           66.14           139.64
44.19           66.31           137.53
44.37           66.48           135.33
44.56           66.66           133.07
44.74           66.86           130.78
44.92           67.06           128.48
45.11           67.27           126.18
45.29           67.49           123.89
45.48           67.69           121.64
45.67           67.89           119.42
45.86           68.08           117.24
46.04           68.25           115.08
46.23           68.39           112.95
46.42           68.52           110.83
46.61           68.63           108.71
46.81           68.73           106.60
47.00           68.81           104.47
47.19           68.88           102.32
47.39           68.94           100.16
47.58           69.00           97.99
47.78           69.05           95.83
47.97           69.10           93.70
48.17           69.15           91.64
48.37           69.21           89.69
48.57           69.27           87.88
48.77           69.35           86.27
48.97           69.44           84.86
49.17           69.54           83.65
49.37           69.65           82.62
49.58           69.77           81.73
49.78           69.88           80.91
49.98           70.00           80.06
50.19           70.11           79.12
50.40           70.21           78.01
50.60           70.30           76.71
50.81           70.37           75.19
51.02           70.44           73.46
51.23           70.49           71.56
51.44           70.53           69.53
51.65           70.57           67.42
51.86           70.60           65.28
52.08           70.64           63.13
52.29           70.68           61.02
52.51           70.72           58.96
52.72           70.78           56.98
52.94           70.85           55.09
53.16           70.94           53.34
53.38           71.05           51.76
53.60           71.17           50.37
53.82           71.31           49.17
54.04           71.46           48.15
54.26           71.63           47.29
54.48           71.80           46.54
54.71           71.97           45.83
54.93           72.13           45.10
55.16           72.29           44.31
55.39           72.44           43.41
55.61           72.58           42.39
55.84           72.70           41.23
56.07           72.79           39.96
56.30           72.87           38.60
56.53           72.92           37.21
56.77           72.95           35.81
57.00           72.95           34.46
57.23           72.92           33.18
57.47           72.87           31.99
57.71           72.79           30.89
57.94           72.70           29.86
58.18           72.59           28.86
58.42           72.48           27.84
58.66           72.37           26.77
58.90           72.29           25.60
59.15           72.24           24.32
59.39           72.22           22.93
59.63           72.25           21.43
59.88           72.31           19.84
60.12           72.41           18.17
60.37           72.54           16.44
60.62           72.68           14.62
60.87           72.85           12.72
61.12           73.02           10.71
61.37           73.21           8.62
61.62           73.40           6.47
61.88           73.60           4.28
62.13           73.81           2.10
62.39           74.01           0.00
62.64           74.20           -1.99
62.90           74.39           -3.84
63.16           74.57           -5.55
63.42           74.74           -7.13
63.68           74.91           -8.61
63.94           75.09           -10.03
64.21           75.28           -11.44
64.47           75.49           -12.88
64.74           75.72           -14.38
65.00           75.96           -15.96
65.27           76.21           -17.61
65.54           76.47           -19.35
65.81           76.73           -21.16
66.08           76.98           -23.06
66.35           77.22           -25.04
66.62           77.46           -27.13
66.90           77.68           -29.35
67.17           77.89           -31.73
67.45           78.08           -34.29
67.73           78.25           -37.02
68.00           78.41           -39.92
68.28           78.54           -42.95
68.56           78.66           -46.09
68.85           78.75           -49.30
69.13           78.82           -52.59
69.41           78.87           -55.97
69.70           78.89           -59.46
69.99           78.90           -63.12
70.27           78.89           -66.96
70.56           78.86           -70.98
70.85           78.82           -75.13
71.14           78.78           -79.35
71.44           78.73           -83.54
71.73           78.70           -87.62
72.03           78.67           -91.56
72.32           78.64           -95.37
72.62           78.61           -99.07
72.92           78.56           -102.74
73.22           78.49           -106.43
73.52           78.40           -110.17
73.82           78.29           -113.96
74.13           78.15           -117.77
74.43           78.02           -121.56
74.74           77.87           -125.29
75.04           77.71           -128.93
75.35           77.53           -132.46
75.66           77.32           -135.90
75.97           77.07           -139.28
76.29           76.77           -142.60
76.60           76.41           -145.87
76.92           76.00           -149.06
77.23           75.54           -152.14
77.55           75.06           -155.04
