Freq[Hz]        [dBSPL]         Phase[Deg]
10.00           104.88          -138.13
10.04           104.87          -138.68
10.08           104.86          -139.31
10.12           104.86          -140.03
10.17           104.87          -140.83
10.21           104.88          -141.71
10.25           104.89          -142.68
10.29           104.91          -143.73
10.33           104.92          -145.41
10.38           104.94          -147.34
10.42           104.98          -149.49
10.46           105.03          -151.88
10.50           105.09          -154.51
10.55           105.16          -157.36
10.59           105.24          -160.44
10.64           105.32          -163.74
10.68           105.42          -167.25
10.72           105.52          -170.96
10.77           105.63          -174.86
10.81           105.74          -178.95
10.86           105.85          176.79
10.90           105.96          172.36
10.95           106.08          167.77
10.99           106.19          163.04
11.04           106.30          158.16
11.08           106.41          153.16
11.13           106.52          148.05
11.17           106.61          142.82
11.22           106.71          137.50
11.26           106.79          132.10
11.31           106.86          126.62
11.36           106.93          121.08
11.40           106.98          115.50
11.45           107.02          109.88
11.50           107.04          104.23
11.55           107.05          98.57
11.59           107.04          92.92
11.64           107.02          87.28
11.69           106.98          81.66
11.74           106.92          76.09
11.78           106.84          70.57
11.83           106.74          65.12
11.88           106.62          59.76
11.93           106.48          54.48
11.98           106.33          49.32
12.03           106.15          44.28
12.08           105.95          39.38
12.13           105.73          34.63
12.18           105.49          30.04
12.23           105.22          25.64
12.28           104.94          21.44
12.33           104.64          17.44
12.38           104.32          13.68
12.43           103.98          10.16
12.48           103.62          6.90
12.53           103.24          3.92
12.58           102.84          1.23
12.64           102.43          -1.14
12.69           101.99          -3.18
12.74           101.54          -4.87
12.79           101.07          -6.19
12.85           100.58          -7.13
12.90           100.07          -7.66
12.95           99.55           -7.77
13.00           99.01           -7.44
13.06           98.45           -6.67
13.11           97.88           -5.46
13.17           97.30           -3.80
13.22           96.70           -1.68
13.27           96.08           0.88
13.33           95.46           3.88
13.38           94.82           7.31
13.44           94.17           11.16
13.49           93.51           15.41
13.55           92.85           20.04
13.61           92.18           25.02
13.66           91.51           30.33
13.72           90.83           35.93
13.77           90.16           41.80
13.83           89.49           47.90
13.89           88.83           54.20
13.94           88.18           60.68
14.00           87.54           67.28
14.06           86.92           73.98
14.12           86.32           80.74
14.18           85.74           87.53
14.23           85.19           94.30
14.29           84.68           101.03
14.35           84.20           107.66
14.41           83.76           114.18
14.47           83.36           120.56
14.53           83.02           126.78
14.59           82.73           132.81
14.65           82.49           138.64
14.71           82.31           144.28
14.77           82.19           149.71
14.83           82.12           154.93
14.89           82.12           159.96
14.95           82.17           164.80
15.01           82.27           169.48
15.08           82.41           174.01
15.14           82.60           178.43
15.20           82.84           -177.23
15.26           83.10           -172.94
15.33           83.40           -168.65
15.39           83.72           -164.34
15.45           84.06           -159.96
15.52           84.42           -155.48
15.58           84.79           -150.85
15.64           85.17           -146.03
15.71           85.55           -140.99
15.77           85.93           -135.68
15.84           86.31           -130.08
15.90           86.68           -124.16
15.97           87.05           -117.91
16.03           87.40           -111.32
16.10           87.74           -104.40
16.17           88.08           -97.15
16.23           88.39           -89.59
16.30           88.70           -81.74
16.37           88.99           -73.65
16.43           89.26           -65.36
16.50           89.52           -56.92
16.57           89.76           -48.39
16.64           89.99           -39.84
16.70           90.20           -31.36
16.77           90.40           -23.04
16.84           90.59           -14.96
16.91           90.75           -7.21
16.98           90.91           0.11
17.05           91.05           6.91
17.12           91.18           13.09
17.19           91.30           18.57
17.26           91.40           23.25
17.33           91.49           27.08
17.40           91.58           29.99
17.48           91.65           31.94
17.55           91.71           32.90
17.62           91.76           32.85
17.69           91.81           31.78
17.77           91.85           29.70
17.84           91.88           26.63
17.91           91.91           22.61
17.99           91.94           17.69
18.06           91.96           11.92
18.13           91.99           5.40
18.21           92.01           -1.79
18.28           92.04           -9.53
18.36           92.08           -17.74
18.43           92.12           -26.28
18.51           92.17           -35.06
18.59           92.24           -43.96
18.66           92.31           -52.88
18.74           92.40           -61.70
18.82           92.50           -70.34
18.89           92.61           -78.71
18.97           92.73           -86.73
19.05           92.84           -94.32
19.13           92.95           -101.41
19.21           93.05           -107.95
19.29           93.13           -113.88
19.37           93.19           -119.16
19.44           93.21           -123.74
19.52           93.20           -127.62
19.61           93.15           -130.75
19.69           93.05           -133.14
19.77           92.90           -134.77
19.85           92.70           -135.65
19.93           92.45           -135.77
20.01           92.13           -135.13
20.09           91.75           -133.73
20.18           91.31           -131.58
20.26           90.80           -128.70
20.34           90.20           -125.12
20.43           89.52           -120.85
20.51           88.75           -115.95
20.59           87.87           -110.45
20.68           86.87           -104.40
20.76           85.74           -97.87
20.85           84.47           -90.92
20.94           83.04           -83.63
21.02           81.46           -76.08
21.11           79.71           -68.37
21.20           77.80           -60.58
21.28           75.76           -52.84
21.37           73.61           -45.26
21.46           71.40           -37.93
21.55           69.17           -30.98
21.63           66.98           -24.49
21.72           64.91           -18.56
21.81           63.10           -13.27
21.90           61.74           -8.69
21.99           61.03           -4.89
22.08           61.06           -1.93
22.17           61.73           0.16
22.27           62.80           1.32
22.36           64.04           1.52
22.45           65.31           0.75
22.54           66.49           -1.00
22.63           67.51           -3.74
22.73           68.33           -7.46
22.82           68.95           -12.14
22.91           69.37           -17.75
23.01           69.64           -24.27
23.10           69.79           -31.65
23.20           69.86           -39.82
23.29           69.86           -48.71
23.39           69.82           -58.23
23.49           69.72           -68.29
23.58           69.56           -78.76
23.68           69.31           -89.52
23.78           68.94           -100.43
23.87           68.41           -111.32
23.97           67.66           -122.02
24.07           66.65           -132.35
24.17           65.33           -142.09
24.27           63.70           -151.03
24.37           61.77           -158.95
24.47           59.60           -165.69
24.57           57.25           -171.09
24.67           54.85           -175.03
24.77           52.60           -177.44
24.88           50.92           -178.26
24.98           50.43           -177.48
25.08           51.39           -175.12
25.18           53.39           -171.22
25.29           55.85           -165.89
25.39           58.42           -159.24
25.50           60.92           -151.45
25.60           63.23           -142.72
25.71           65.29           -133.29
25.81           67.07           -123.43
25.92           68.58           -113.37
26.02           69.84           -103.33
26.13           70.89           -93.51
26.24           71.74           -84.05
26.35           72.44           -75.09
26.45           73.00           -66.74
26.56           73.46           -59.05
26.67           73.83           -52.08
26.78           74.13           -45.82
26.89           74.37           -40.24
27.00           74.56           -35.30
27.11           74.69           -30.89
27.23           74.77           -26.89
27.34           74.78           -23.20
27.45           74.74           -19.70
27.56           74.64           -16.33
27.68           74.51           -13.01
27.79           74.35           -9.74
27.90           74.18           -6.51
28.02           74.04           -3.34
28.14           73.92           -0.31
28.25           73.83           2.51
28.37           73.78           5.00
28.48           73.75           7.01
28.60           73.72           8.37
28.72           73.69           8.93
28.84           73.63           8.53
28.96           73.55           7.06
29.07           73.43           4.44
29.19           73.28           0.64
29.31           73.08           -4.33
29.43           72.84           -10.41
29.56           72.54           -17.51
29.68           72.19           -25.48
29.80           71.77           -34.12
29.92           71.28           -43.18
30.04           70.72           -52.40
30.17           70.09           -61.49
30.29           69.38           -70.19
30.42           68.61           -78.26
30.54           67.79           -85.50
30.67           66.95           -91.75
30.79           66.09           -96.94
30.92           65.24           -101.04
31.05           64.42           -104.05
31.18           63.65           -106.08
31.30           62.96           -107.27
31.43           62.34           -107.82
31.56           61.83           -107.94
31.69           61.42           -107.88
31.82           61.11           -107.87
31.95           60.90           -108.15
32.08           60.80           -108.91
32.22           60.78           -110.27
32.35           60.85           -112.34
32.48           60.99           -115.14
32.62           61.19           -118.65
32.75           61.44           -122.81
32.88           61.74           -127.47
33.02           62.06           -132.50
33.16           62.40           -137.71
33.29           62.75           -142.90
33.43           63.11           -147.84
33.57           63.45           -152.33
33.70           63.78           -156.20
33.84           64.09           -159.29
33.98           64.37           -161.48
34.12           64.62           -162.68
34.26           64.83           -162.85
34.40           65.01           -161.96
34.54           65.14           -160.04
34.69           65.23           -157.17
34.83           65.29           -153.48
34.97           65.30           -149.14
35.12           65.27           -144.34
35.26           65.21           -139.28
35.41           65.12           -134.19
35.55           64.99           -129.31
35.70           64.83           -124.91
35.84           64.65           -121.21
35.99           64.44           -118.41
36.14           64.22           -116.62
36.29           63.98           -115.95
36.44           63.75           -116.42
36.59           63.53           -118.00
36.74           63.32           -120.61
36.89           63.14           -124.08
37.04           62.99           -128.18
37.19           62.87           -132.63
37.35           62.78           -137.18
37.50           62.71           -141.57
37.65           62.66           -145.58
37.81           62.63           -149.02
37.97           62.62           -151.71
38.12           62.61           -153.53
38.28           62.60           -154.49
38.44           62.60           -154.65
38.59           62.59           -154.16
38.75           62.58           -153.22
38.91           62.57           -152.02
39.07           62.56           -150.77
39.23           62.55           -149.71
39.39           62.54           -149.09
39.56           62.54           -149.14
39.72           62.55           -150.04
39.88           62.58           -151.88
40.05           62.63           -154.68
40.21           62.70           -158.42
40.38           62.81           -163.02
40.54           62.94           -168.37
40.71           63.11           -174.31
40.88           63.32           179.39
41.04           63.55           172.98
41.21           63.81           166.68
41.38           64.09           160.71
41.55           64.38           155.22
41.72           64.69           150.35
41.90           65.00           146.18
42.07           65.31           142.75
42.24           65.61           140.04
42.42           65.91           138.02
42.59           66.19           136.57
42.76           66.46           135.60
42.94           66.71           135.01
43.12           66.94           134.67
43.29           67.15           134.50
43.47           67.34           134.40
43.65           67.52           134.30
43.83           67.67           134.12
44.01           67.82           133.80
44.19           67.95           133.28
44.37           68.07           132.54
44.56           68.18           131.55
44.74           68.29           130.30
44.92           68.40           128.80
45.11           68.50           127.06
45.29           68.60           125.12
45.48           68.69           123.01
45.67           68.79           120.80
45.86           68.87           118.52
46.04           68.96           116.22
46.23           69.03           113.93
46.42           69.10           111.68
46.61           69.16           109.51
46.81           69.21           107.42
47.00           69.25           105.44
47.19           69.29           103.57
47.39           69.31           101.82
47.58           69.32           100.18
47.78           69.32           98.65
47.97           69.31           97.22
48.17           69.30           95.85
48.37           69.28           94.53
48.57           69.27           93.22
48.77           69.26           91.89
48.97           69.25           90.52
49.17           69.26           89.08
49.37           69.29           87.55
49.58           69.34           85.93
49.78           69.40           84.21
49.98           69.50           82.39
50.19           69.62           80.46
50.40           69.76           78.43
50.60           69.94           76.33
50.81           70.13           74.18
51.02           70.35           72.00
51.23           70.57           69.83
51.44           70.81           67.73
51.65           71.04           65.73
51.86           71.27           63.89
52.08           71.49           62.20
52.29           71.69           60.70
52.51           71.87           59.37
52.72           72.02           58.19
52.94           72.14           57.14
53.16           72.24           56.18
53.38           72.30           55.28
53.60           72.34           54.44
53.82           72.35           53.63
54.04           72.34           52.84
54.26           72.32           52.07
54.48           72.30           51.30
54.71           72.27           50.52
54.93           72.25           49.73
55.16           72.24           48.91
55.39           72.24           48.07
55.61           72.25           47.18
55.84           72.26           46.27
56.07           72.27           45.31
56.30           72.29           44.29
56.53           72.32           43.16
56.77           72.35           41.87
57.00           72.40           40.32
57.23           72.46           38.44
57.47           72.53           36.17
57.71           72.61           33.48
57.94           72.70           30.43
58.18           72.79           27.08
58.42           72.89           23.57
58.66           72.97           20.06
58.90           73.06           16.68
59.15           73.15           13.51
59.39           73.24           10.61
59.63           73.35           8.00
59.88           73.46           5.67
60.12           73.59           3.60
60.37           73.73           1.79
60.62           73.88           0.30
60.87           74.02           -0.82
61.12           74.15           -1.56
61.37           74.28           -1.91
61.62           74.39           -1.92
61.88           74.48           -1.68
62.13           74.57           -1.37
62.39           74.64           -1.14
62.64           74.70           -1.16
62.90           74.76           -1.53
63.16           74.82           -2.30
63.42           74.88           -3.48
63.68           74.94           -5.02
63.94           75.02           -6.80
64.21           75.11           -8.76
64.47           75.22           -10.82
64.74           75.35           -12.92
65.00           75.52           -15.05
65.27           75.71           -17.21
65.54           75.93           -19.42
65.81           76.17           -21.70
66.08           76.42           -24.05
66.35           76.67           -26.48
66.62           76.92           -28.98
66.90           77.16           -31.52
67.17           77.38           -34.10
67.45           77.58           -36.71
67.73           77.76           -39.35
68.00           77.91           -42.04
68.28           78.05           -44.80
68.56           78.18           -47.66
68.85           78.31           -50.61
69.13           78.42           -53.66
69.41           78.53           -56.82
69.70           78.61           -60.06
69.99           78.67           -63.37
70.27           78.70           -66.74
70.56           78.69           -70.17
70.85           78.67           -73.67
71.14           78.64           -77.28
71.44           78.62           -81.02
71.73           78.62           -84.92
72.03           78.64           -88.96
72.32           78.69           -93.12
72.62           78.73           -97.35
72.92           78.74           -101.57
73.22           78.72           -105.74
73.52           78.64           -109.81
73.82           78.52           -113.79
74.13           78.37           -117.68
74.43           78.22           -121.50
74.74           78.07           -125.27
75.04           77.92           -128.96
75.35           77.76           -132.56
75.66           77.59           -136.00
75.97           77.36           -139.24
76.29           77.07           -142.25
76.60           76.71           -145.03
76.92           76.27           -147.61
77.23           75.77           -150.04
