Freq[Hz]        [dBSPL]         Phase[Deg]
10.00           108.74          25.88
10.04           108.76          24.90
10.08           108.78          23.83
10.12           108.79          22.67
10.17           108.81          21.42
10.21           108.82          20.08
10.25           108.83          18.65
10.29           108.84          17.14
10.33           108.86          14.56
10.38           108.88          11.73
10.42           108.89          8.65
10.46           108.89          5.32
10.50           108.88          1.75
10.55           108.87          -2.06
10.59           108.85          -6.09
10.64           108.83          -10.35
10.68           108.79          -14.81
10.72           108.75          -19.46
10.77           108.70          -24.30
10.81           108.64          -29.32
10.86           108.57          -34.49
10.90           108.50          -39.81
10.95           108.41          -45.27
10.99           108.33          -50.84
11.04           108.23          -56.53
11.08           108.12          -62.32
11.13           108.01          -68.18
11.17           107.89          -74.11
11.22           107.76          -80.10
11.26           107.62          -86.12
11.31           107.47          -92.16
11.36           107.32          -98.20
11.40           107.16          -104.24
11.45           106.98          -110.25
11.50           106.81          -116.22
11.55           106.62          -122.12
11.59           106.42          -127.95
11.64           106.22          -133.70
11.69           106.01          -139.34
11.74           105.79          -144.87
11.78           105.57          -150.26
11.83           105.33          -155.52
11.88           105.09          -160.62
11.93           104.84          -165.56
11.98           104.59          -170.32
12.03           104.33          -174.90
12.08           104.06          -179.28
12.13           103.78          176.54
12.18           103.50          172.57
12.23           103.22          168.82
12.28           102.93          165.30
12.33           102.63          162.02
12.38           102.33          158.98
12.43           102.03          156.20
12.48           101.73          153.68
12.53           101.42          151.44
12.58           101.11          149.48
12.64           100.80          147.81
12.69           100.49          146.45
12.74           100.17          145.41
12.79           99.86           144.69
12.85           99.55           144.30
12.90           99.24           144.26
12.95           98.93           144.57
13.00           98.63           145.24
13.06           98.32           146.27
13.11           98.03           147.67
13.17           97.73           149.43
13.22           97.44           151.55
13.27           97.16           154.02
13.33           96.89           156.85
13.38           96.62           160.01
13.44           96.36           163.51
13.49           96.11           167.31
13.55           95.86           171.42
13.61           95.63           175.80
13.66           95.42           -179.56
13.72           95.21           -174.68
13.77           95.01           -169.59
13.83           94.83           -164.32
13.89           94.67           -158.88
13.94           94.52           -153.31
14.00           94.39           -147.63
14.06           94.27           -141.86
14.12           94.18           -136.03
14.18           94.10           -130.18
14.23           94.05           -124.32
14.29           94.02           -118.49
14.35           94.01           -112.72
14.41           94.03           -107.03
14.47           94.07           -101.43
14.53           94.13           -95.95
14.59           94.22           -90.59
14.65           94.34           -85.37
14.71           94.47           -80.29
14.77           94.63           -75.35
14.83           94.81           -70.55
14.89           95.01           -65.88
14.95           95.22           -61.33
15.01           95.45           -56.90
15.08           95.68           -52.55
15.14           95.93           -48.27
15.20           96.18           -44.03
15.26           96.43           -39.80
15.33           96.68           -35.55
15.39           96.93           -31.25
15.45           97.17           -26.87
15.52           97.40           -22.38
15.58           97.62           -17.74
15.64           97.83           -12.93
15.71           98.02           -7.91
15.77           98.18           -2.65
15.84           98.33           2.87
15.90           98.45           8.66
15.97           98.55           14.74
16.03           98.63           21.11
16.10           98.68           27.75
16.17           98.71           34.66
16.23           98.71           41.80
16.30           98.69           49.16
16.37           98.64           56.70
16.43           98.57           64.36
16.50           98.48           72.10
16.57           98.37           79.84
16.64           98.24           87.52
16.70           98.09           95.05
16.77           97.92           102.35
16.84           97.75           109.33
16.91           97.57           115.90
16.98           97.38           121.97
17.05           97.19           127.44
17.12           97.00           132.22
17.19           96.82           136.22
17.26           96.65           139.36
17.33           96.50           141.57
17.40           96.36           142.81
17.48           96.24           143.03
17.55           96.15           142.22
17.62           96.08           140.36
17.69           96.03           137.46
17.77           96.01           133.53
17.84           96.01           128.62
17.91           96.03           122.78
17.99           96.08           116.07
18.06           96.13           108.58
18.13           96.21           100.40
18.21           96.29           91.66
18.28           96.37           82.49
18.36           96.45           73.01
18.43           96.54           63.36
18.51           96.61           53.68
18.59           96.67           44.10
18.66           96.72           34.76
18.74           96.74           25.76
18.82           96.75           17.20
18.89           96.74           9.17
18.97           96.70           1.74
19.05           96.64           -5.03
19.13           96.55           -11.10
19.21           96.43           -16.46
19.29           96.28           -21.09
19.37           96.10           -24.99
19.44           95.88           -28.19
19.52           95.64           -30.74
19.61           95.36           -32.70
19.69           95.05           -34.13
19.77           94.70           -35.14
19.85           94.32           -35.82
19.93           93.91           -36.28
20.01           93.47           -36.60
20.09           92.99           -36.88
20.18           92.48           -37.22
20.26           91.94           -37.66
20.34           91.37           -38.28
20.43           90.77           -39.12
20.51           90.14           -40.23
20.59           89.49           -41.62
20.68           88.81           -43.30
20.76           88.10           -45.29
20.85           87.37           -47.56
20.94           86.62           -50.10
21.02           85.86           -52.86
21.11           85.08           -55.79
21.20           84.30           -58.83
21.28           83.52           -61.89
21.37           82.74           -64.90
21.46           81.98           -67.78
21.55           81.24           -70.44
21.63           80.54           -72.84
21.72           79.87           -74.90
21.81           79.26           -76.60
21.90           78.70           -77.89
21.99           78.20           -78.75
22.08           77.77           -79.16
22.17           77.41           -79.12
22.27           77.11           -78.63
22.36           76.87           -77.72
22.45           76.68           -76.41
22.54           76.54           -74.74
22.63           76.44           -72.76
22.73           76.35           -70.54
22.82           76.28           -68.15
22.91           76.21           -65.66
23.01           76.13           -63.13
23.10           76.05           -60.61
23.20           75.94           -58.13
23.29           75.81           -55.72
23.39           75.67           -53.38
23.49           75.50           -51.13
23.58           75.30           -48.93
23.68           75.08           -46.78
23.78           74.83           -44.62
23.87           74.56           -42.41
23.97           74.26           -40.07
24.07           73.95           -37.53
24.17           73.62           -34.68
24.27           73.30           -31.42
24.37           72.99           -27.64
24.47           72.71           -23.24
24.57           72.48           -18.18
24.67           72.30           -12.38
24.77           72.20           -5.83
24.88           72.17           1.48
24.98           72.23           9.55
25.08           72.37           18.34
25.18           72.58           27.79
25.29           72.86           37.83
25.39           73.18           48.36
25.50           73.54           59.25
25.60           73.90           70.36
25.71           74.26           81.51
25.81           74.61           92.52
25.92           74.93           103.21
26.02           75.21           113.42
26.13           75.46           122.98
26.24           75.66           131.76
26.35           75.82           139.62
26.45           75.94           146.44
26.56           76.01           152.12
26.67           76.03           156.57
26.78           76.01           159.70
26.89           75.93           161.47
27.00           75.81           161.80
27.11           75.63           160.69
27.23           75.41           158.10
27.34           75.13           154.07
27.45           74.81           148.63
27.56           74.44           141.85
27.68           74.03           133.78
27.79           73.58           124.52
27.90           73.10           114.18
28.02           72.60           102.87
28.14           72.08           90.74
28.25           71.55           77.95
28.37           71.03           64.68
28.48           70.54           51.11
28.60           70.11           37.46
28.72           69.75           23.93
28.84           69.50           10.68
28.96           69.40           -2.14
29.07           69.44           -14.40
29.19           69.64           -26.04
29.31           69.96           -36.99
29.43           70.37           -47.27
29.56           70.83           -56.88
29.68           71.29           -65.91
29.80           71.70           -74.45
29.92           72.04           -82.64
30.04           72.29           -90.66
30.17           72.46           -98.67
30.29           72.54           -106.81
30.42           72.56           -115.22
30.54           72.51           -123.98
30.67           72.41           -133.11
30.79           72.25           -142.61
30.92           72.02           -152.39
31.05           71.71           -162.34
31.18           71.30           -172.26
31.30           70.78           178.08
31.43           70.12           168.96
31.56           69.29           160.68
31.69           68.29           153.49
31.82           67.11           147.64
31.95           65.81           143.33
32.08           64.42           140.69
32.22           63.02           139.77
32.35           61.71           140.56
32.48           60.58           142.94
32.62           59.72           146.74
32.75           59.21           151.66
32.88           59.02           157.38
33.02           59.11           163.54
33.16           59.41           169.80
33.29           59.84           175.80
33.43           60.36           -178.78
33.57           60.92           -174.21
33.70           61.51           -170.69
33.84           62.11           -168.30
33.98           62.71           -167.05
34.12           63.32           -166.87
34.26           63.91           -167.58
34.40           64.51           -168.98
34.54           65.08           -170.83
34.69           65.64           -172.89
34.83           66.17           -174.91
34.97           66.67           -176.61
35.12           67.12           -177.81
35.26           67.52           -178.37
35.41           67.86           -178.27
35.55           68.13           -177.52
35.70           68.34           -176.24
35.84           68.47           -174.58
35.99           68.54           -172.71
36.14           68.54           -170.81
36.29           68.49           -169.10
36.44           68.38           -167.82
36.59           68.21           -167.16
36.74           67.99           -167.27
36.89           67.70           -168.23
37.04           67.34           -170.07
37.19           66.90           -172.76
37.35           66.39           -176.23
37.50           65.81           179.64
37.65           65.15           175.01
37.81           64.44           170.05
37.97           63.72           165.03
38.12           63.01           160.16
38.28           62.37           155.67
38.44           61.85           151.77
38.59           61.46           148.63
38.75           61.23           146.38
38.91           61.15           145.10
39.07           61.21           144.81
39.23           61.39           145.48
39.39           61.66           147.02
39.56           62.00           149.28
39.72           62.39           152.09
39.88           62.82           155.23
40.05           63.27           158.45
40.21           63.73           161.54
40.38           64.20           164.32
40.54           64.67           166.60
40.71           65.12           168.26
40.88           65.56           169.20
41.04           65.97           169.33
41.21           66.35           168.65
41.38           66.70           167.22
41.55           67.00           165.11
41.72           67.27           162.42
41.90           67.50           159.27
42.07           67.68           155.78
42.24           67.83           152.10
42.42           67.95           148.37
42.59           68.03           144.75
42.76           68.08           141.33
42.94           68.11           138.20
43.12           68.11           135.38
43.29           68.10           132.90
43.47           68.07           130.76
43.65           68.03           128.91
43.83           67.99           127.32
44.01           67.95           125.89
44.19           67.94           124.56
44.37           67.95           123.27
44.56           67.99           121.98
44.74           68.08           120.67
44.92           68.20           119.31
45.11           68.36           117.90
45.29           68.55           116.43
45.48           68.77           114.93
45.67           69.00           113.41
45.86           69.25           111.87
46.04           69.50           110.33
46.23           69.74           108.79
46.42           69.97           107.24
46.61           70.18           105.68
46.81           70.37           104.11
47.00           70.53           102.52
47.19           70.65           100.90
47.39           70.74           99.24
47.58           70.79           97.54
47.78           70.81           95.79
47.97           70.80           93.99
48.17           70.77           92.15
48.37           70.71           90.25
48.57           70.65           88.30
48.77           70.58           86.31
48.97           70.53           84.29
49.17           70.49           82.26
49.37           70.48           80.22
49.58           70.52           78.22
49.78           70.59           76.26
49.98           70.71           74.39
50.19           70.86           72.62
50.40           71.04           70.97
50.60           71.24           69.43
50.81           71.44           68.02
51.02           71.64           66.71
51.23           71.84           65.49
51.44           72.02           64.36
51.65           72.19           63.29
51.86           72.33           62.29
52.08           72.45           61.35
52.29           72.56           60.47
52.51           72.64           59.64
52.72           72.70           58.85
52.94           72.76           58.10
53.16           72.81           57.35
53.38           72.87           56.55
53.60           72.93           55.69
53.82           73.00           54.72
54.04           73.07           53.61
54.26           73.15           52.32
54.48           73.22           50.87
54.71           73.28           49.29
54.93           73.34           47.62
55.16           73.39           45.92
55.39           73.44           44.29
55.61           73.48           42.82
55.84           73.53           41.57
56.07           73.59           40.58
56.30           73.65           39.81
56.53           73.71           39.18
56.77           73.77           38.59
57.00           73.83           37.88
57.23           73.88           36.90
57.47           73.91           35.55
57.71           73.95           33.81
57.94           73.98           31.72
58.18           74.02           29.35
58.42           74.07           26.82
58.66           74.13           24.26
58.90           74.21           21.74
59.15           74.30           19.27
59.39           74.40           16.81
59.63           74.51           14.34
59.88           74.62           11.84
60.12           74.74           9.31
60.37           74.85           6.81
60.62           74.96           4.46
60.87           75.07           2.41
61.12           75.19           0.73
61.37           75.31           -0.52
61.62           75.43           -1.36
61.88           75.55           -1.88
62.13           75.67           -2.21
62.39           75.78           -2.50
62.64           75.89           -2.87
62.90           76.00           -3.39
63.16           76.11           -4.12
63.42           76.23           -5.06
63.68           76.37           -6.23
63.94           76.52           -7.62
64.21           76.69           -9.24
64.47           76.88           -11.13
64.74           77.09           -13.27
65.00           77.31           -15.64
65.27           77.54           -18.20
65.54           77.76           -20.86
65.81           77.97           -23.55
66.08           78.16           -26.22
66.35           78.33           -28.85
66.62           78.48           -31.45
66.90           78.63           -34.09
67.17           78.76           -36.80
67.45           78.90           -39.62
67.73           79.04           -42.54
68.00           79.18           -45.54
68.28           79.31           -48.53
68.56           79.42           -51.45
68.85           79.51           -54.26
69.13           79.57           -56.95
69.41           79.61           -59.57
69.70           79.65           -62.19
69.99           79.69           -64.93
70.27           79.75           -67.85
70.56           79.84           -71.00
70.85           79.93           -74.39
71.14           80.02           -77.99
71.44           80.09           -81.74
71.73           80.13           -85.58
72.03           80.13           -89.46
72.32           80.09           -93.36
72.62           80.02           -97.26
72.92           79.93           -101.14
73.22           79.84           -105.00
73.52           79.74           -108.83
73.82           79.64           -112.63
74.13           79.54           -116.37
74.43           79.42           -120.05
74.74           79.27           -123.63
75.04           79.08           -127.08
75.35           78.85           -130.39
75.66           78.57           -133.50
75.97           78.26           -136.43
76.29           77.93           -139.16
76.60           77.59           -141.73
76.92           77.25           -144.18
77.23           76.90           -146.58
77.55           76.54           -148.96
