Freq[Hz]        [dBSPL]         Phase[Deg]
10.00           94.92           135.02
10.04           94.78           137.65
10.08           94.65           140.30
10.12           94.52           142.98
10.17           94.39           145.66
10.21           94.26           148.36
10.25           94.14           151.06
10.29           94.01           153.78
10.33           93.72           159.10
10.38           93.43           164.47
10.42           93.14           169.86
10.46           92.85           175.26
10.50           92.57           -179.33
10.55           92.29           -173.93
10.59           92.01           -168.54
10.64           91.74           -163.20
10.68           91.48           -157.89
10.72           91.23           -152.65
10.77           90.99           -147.48
10.81           90.75           -142.40
10.86           90.53           -137.42
10.90           90.32           -132.56
10.95           90.12           -127.83
10.99           89.94           -123.25
11.04           89.77           -118.83
11.08           89.62           -114.60
11.13           89.48           -110.56
11.17           89.37           -106.73
11.22           89.27           -103.13
11.26           89.20           -99.79
11.31           89.16           -96.71
11.36           89.13           -93.92
11.40           89.14           -91.43
11.45           89.17           -89.26
11.50           89.24           -87.44
11.55           89.33           -85.96
11.59           89.46           -84.85
11.64           89.62           -84.11
11.69           89.81           -83.74
11.74           90.03           -83.75
11.78           90.29           -84.13
11.83           90.57           -84.88
11.88           90.89           -85.99
11.93           91.23           -87.46
11.98           91.59           -89.26
12.03           91.98           -91.38
12.08           92.39           -93.80
12.13           92.81           -96.49
12.18           93.25           -99.43
12.23           93.70           -102.59
12.28           94.16           -105.94
12.33           94.63           -109.44
12.38           95.10           -113.08
12.43           95.57           -116.82
12.48           96.04           -120.62
12.53           96.51           -124.45
12.58           96.96           -128.29
12.64           97.41           -132.09
12.69           97.85           -135.82
12.74           98.27           -139.45
12.79           98.67           -142.93
12.85           99.05           -146.24
12.90           99.41           -149.32
12.95           99.75           -152.16
13.00           100.06          -154.73
13.06           100.34          -156.99
13.11           100.60          -158.92
13.17           100.83          -160.52
13.22           101.03          -161.76
13.27           101.20          -162.64
13.33           101.35          -163.14
13.38           101.46          -163.28
13.44           101.55          -163.05
13.49           101.61          -162.46
13.55           101.64          -161.52
13.61           101.65          -160.25
13.66           101.62          -158.67
13.72           101.57          -156.81
13.77           101.50          -154.68
13.83           101.40          -152.32
13.89           101.28          -149.75
13.94           101.14          -147.00
14.00           100.98          -144.09
14.06           100.80          -141.05
14.12           100.59          -137.91
14.18           100.38          -134.71
14.23           100.14          -131.46
14.29           99.89           -128.20
14.35           99.63           -124.97
14.41           99.36           -121.77
14.47           99.08           -118.65
14.53           98.78           -115.63
14.59           98.48           -112.71
14.65           98.18           -109.93
14.71           97.87           -107.30
14.77           97.55           -104.82
14.83           97.24           -102.52
14.89           96.92           -100.39
14.95           96.60           -98.45
15.01           96.29           -96.70
15.08           95.98           -95.13
15.14           95.66           -93.75
15.20           95.36           -92.55
15.26           95.05           -91.52
15.33           94.75           -90.66
15.39           94.45           -89.97
15.45           94.16           -89.43
15.52           93.88           -89.04
15.58           93.60           -88.79
15.64           93.33           -88.68
15.71           93.06           -88.69
15.77           92.81           -88.83
15.84           92.56           -89.09
15.90           92.32           -89.46
15.97           92.09           -89.95
16.03           91.88           -90.55
16.10           91.67           -91.26
16.17           91.48           -92.08
16.23           91.30           -93.03
16.30           91.13           -94.10
16.37           90.98           -95.31
16.43           90.85           -96.66
16.50           90.73           -98.16
16.57           90.63           -99.82
16.64           90.54           -101.67
16.70           90.48           -103.70
16.77           90.43           -105.95
16.84           90.41           -108.43
16.91           90.41           -111.15
16.98           90.43           -114.14
17.05           90.47           -117.41
17.12           90.54           -120.98
17.19           90.64           -124.86
17.26           90.76           -129.08
17.33           90.90           -133.62
17.40           91.07           -138.49
17.48           91.26           -143.68
17.55           91.47           -149.18
17.62           91.70           -154.96
17.69           91.94           -161.01
17.77           92.19           -167.29
17.84           92.44           -173.77
17.91           92.68           179.62
17.99           92.92           172.91
18.06           93.15           166.18
18.13           93.36           159.48
18.21           93.55           152.89
18.28           93.70           146.49
18.36           93.83           140.37
18.43           93.92           134.60
18.51           93.96           129.28
18.59           93.97           124.48
18.66           93.92           120.28
18.74           93.83           116.74
18.82           93.70           113.92
18.89           93.51           111.84
18.97           93.28           110.53
19.05           92.99           110.00
19.13           92.65           110.25
19.21           92.25           111.24
19.29           91.80           112.95
19.37           91.29           115.34
19.44           90.71           118.32
19.52           90.08           121.82
19.61           89.38           125.75
19.69           88.64           129.99
19.77           87.84           134.40
19.85           87.01           138.87
19.93           86.15           143.24
20.01           85.29           147.39
20.09           84.43           151.18
20.18           83.60           154.52
20.26           82.81           157.29
20.34           82.09           159.44
20.43           81.45           160.90
20.51           80.93           161.62
20.59           80.52           161.58
20.68           80.25           160.78
20.76           80.10           159.22
20.85           80.07           156.93
20.94           80.15           153.97
21.02           80.31           150.40
21.11           80.53           146.31
21.20           80.78           141.81
21.28           81.05           137.03
21.37           81.32           132.11
21.46           81.56           127.17
21.55           81.78           122.35
21.63           81.96           117.75
21.72           82.09           113.47
21.81           82.19           109.60
21.90           82.24           106.21
21.99           82.25           103.36
22.08           82.22           101.09
22.17           82.14           99.45
22.27           82.01           98.44
22.36           81.83           98.07
22.45           81.60           98.33
22.54           81.32           99.20
22.63           80.99           100.62
22.73           80.61           102.55
22.82           80.19           104.90
22.91           79.75           107.62
23.01           79.28           110.63
23.10           78.80           113.86
23.20           78.32           117.27
23.29           77.85           120.77
23.39           77.41           124.34
23.49           77.00           127.90
23.58           76.63           131.42
23.68           76.32           134.86
23.78           76.06           138.17
23.87           75.86           141.32
23.97           75.72           144.27
24.07           75.62           147.02
24.17           75.56           149.52
24.27           75.53           151.76
24.37           75.53           153.74
24.47           75.54           155.46
24.57           75.56           156.92
24.67           75.58           158.13
24.77           75.60           159.13
24.88           75.62           159.94
24.98           75.63           160.62
25.08           75.64           161.21
25.18           75.64           161.78
25.29           75.63           162.39
25.39           75.62           163.14
25.50           75.60           164.11
25.60           75.58           165.41
25.71           75.56           167.16
25.81           75.54           169.45
25.92           75.54           172.37
26.02           75.55           175.99
26.13           75.57           -179.65
26.24           75.62           -174.54
26.35           75.69           -168.69
26.45           75.78           -162.12
26.56           75.90           -154.91
26.67           76.04           -147.12
26.78           76.19           -138.89
26.89           76.37           -130.34
27.00           76.56           -121.64
27.11           76.76           -113.00
27.23           76.97           -104.60
27.34           77.17           -96.65
27.45           77.37           -89.31
27.56           77.56           -82.69
27.68           77.73           -76.89
27.79           77.88           -71.96
27.90           77.99           -67.91
28.02           78.07           -64.72
28.14           78.12           -62.33
28.25           78.11           -60.61
28.37           78.06           -59.43
28.48           77.96           -58.58
28.60           77.81           -57.84
28.72           77.61           -56.99
28.84           77.34           -55.80
28.96           77.03           -54.09
29.07           76.65           -51.72
29.19           76.21           -48.58
29.31           75.71           -44.64
29.43           75.14           -39.88
29.56           74.49           -34.38
29.68           73.76           -28.23
29.80           72.95           -21.60
29.92           72.06           -14.70
30.04           71.11           -7.78
30.17           70.12           -1.10
30.29           69.13           5.07
30.42           68.22           10.49
30.54           67.48           14.95
30.67           66.98           18.30
30.79           66.76           20.43
30.92           66.79           21.29
31.05           66.98           20.89
31.18           67.25           19.29
31.30           67.49           16.60
31.43           67.67           13.01
31.56           67.77           8.71
31.69           67.80           3.95
31.82           67.76           -1.00
31.95           67.68           -5.85
32.08           67.55           -10.34
32.22           67.38           -14.22
32.35           67.14           -17.27
32.48           66.82           -19.30
32.62           66.39           -20.14
32.75           65.82           -19.64
32.88           65.05           -17.68
33.02           64.04           -14.22
33.16           62.74           -9.24
33.29           61.14           -2.79
33.43           59.26           5.02
33.57           57.18           14.06
33.70           55.00           24.16
33.84           52.86           35.12
33.98           51.00           46.70
34.12           49.64           58.66
34.26           48.97           70.69
34.40           48.94           82.52
34.54           49.38           93.90
34.69           50.09           104.59
34.83           50.94           114.42
34.97           51.84           123.21
35.12           52.76           130.89
35.26           53.69           137.41
35.41           54.61           142.79
35.55           55.52           147.12
35.70           56.41           150.55
35.84           57.28           153.26
35.99           58.13           155.41
36.14           58.96           157.21
36.29           59.75           158.85
36.44           60.51           160.53
36.59           61.22           162.42
36.74           61.88           164.64
36.89           62.47           167.23
37.04           63.01           170.21
37.19           63.47           173.52
37.35           63.86           177.08
37.50           64.19           -179.19
37.65           64.46           -175.43
37.81           64.68           -171.77
37.97           64.86           -168.40
38.12           64.99           -165.47
38.28           65.09           -163.09
38.44           65.16           -161.36
38.59           65.22           -160.32
38.75           65.26           -160.00
38.91           65.30           -160.40
39.07           65.36           -161.47
39.23           65.44           -163.15
39.39           65.56           -165.34
39.56           65.72           -167.93
39.72           65.94           -170.78
39.88           66.19           -173.79
40.05           66.45           -176.85
40.21           66.73           -179.85
40.38           66.99           177.26
40.54           67.23           174.57
40.71           67.46           172.11
40.88           67.66           169.91
41.04           67.84           167.98
41.21           67.99           166.33
41.38           68.13           164.94
41.55           68.24           163.80
41.72           68.33           162.89
41.90           68.41           162.17
42.07           68.46           161.61
42.24           68.50           161.18
42.42           68.52           160.82
42.59           68.53           160.50
42.76           68.53           160.15
42.94           68.52           159.76
43.12           68.49           159.26
43.29           68.45           158.63
43.47           68.41           157.81
43.65           68.36           156.77
43.83           68.31           155.45
44.01           68.26           153.82
44.19           68.22           151.83
44.37           68.20           149.42
44.56           68.20           146.57
44.74           68.24           143.29
44.92           68.34           139.58
45.11           68.50           135.49
45.29           68.73           131.08
45.48           69.02           126.43
45.67           69.35           121.66
45.86           69.69           116.88
46.04           70.04           112.20
46.23           70.37           107.70
46.42           70.67           103.48
46.61           70.94           99.59
46.81           71.18           96.08
47.00           71.39           93.01
47.19           71.56           90.38
47.39           71.70           88.21
47.58           71.80           86.49
47.78           71.86           85.20
47.97           71.89           84.31
48.17           71.87           83.78
48.37           71.80           83.53
48.57           71.70           83.49
48.77           71.58           83.60
48.97           71.43           83.77
49.17           71.28           83.96
49.37           71.13           84.12
49.58           70.99           84.22
49.78           70.87           84.24
49.98           70.78           84.18
50.19           70.72           84.04
50.40           70.71           83.83
50.60           70.73           83.53
50.81           70.80           83.14
51.02           70.91           82.61
51.23           71.04           81.92
51.44           71.19           81.02
51.65           71.34           79.86
51.86           71.48           78.43
52.08           71.60           76.71
52.29           71.72           74.72
52.51           71.82           72.50
52.72           71.91           70.09
52.94           71.98           67.57
53.16           72.05           65.00
53.38           72.10           62.42
53.60           72.13           59.86
53.82           72.16           57.34
54.04           72.18           54.86
54.26           72.21           52.39
54.48           72.25           49.93
54.71           72.32           47.51
54.93           72.42           45.16
55.16           72.58           42.93
55.39           72.77           40.89
55.61           73.00           39.12
55.84           73.26           37.67
56.07           73.53           36.56
56.30           73.81           35.75
56.53           74.09           35.16
56.77           74.37           34.69
57.00           74.64           34.23
57.23           74.93           33.64
57.47           75.20           32.85
57.71           75.48           31.86
57.94           75.73           30.68
58.18           75.96           29.36
58.42           76.15           27.97
58.66           76.29           26.57
58.90           76.38           25.19
59.15           76.43           23.77
59.39           76.43           22.25
59.63           76.40           20.56
59.88           76.35           18.67
60.12           76.28           16.55
60.37           76.19           14.24
60.62           76.09           11.83
60.87           75.97           9.45
61.12           75.85           7.19
61.37           75.71           5.12
61.62           75.58           3.25
61.88           75.47           1.57
62.13           75.39           0.01
62.39           75.38           -1.53
62.64           75.44           -3.09
62.90           75.56           -4.70
63.16           75.75           -6.38
63.42           75.99           -8.12
63.68           76.25           -9.90
63.94           76.52           -11.68
64.21           76.79           -13.47
64.47           77.05           -15.27
64.74           77.28           -17.11
65.00           77.50           -18.98
65.27           77.69           -20.92
65.54           77.87           -22.91
65.81           78.03           -24.97
66.08           78.19           -27.11
66.35           78.33           -29.33
66.62           78.47           -31.64
66.90           78.61           -34.05
67.17           78.74           -36.55
67.45           78.86           -39.13
67.73           78.98           -41.80
68.00           79.10           -44.54
68.28           79.22           -47.35
68.56           79.35           -50.24
68.85           79.48           -53.21
69.13           79.61           -56.25
69.41           79.74           -59.35
69.70           79.87           -62.48
69.99           79.99           -65.62
70.27           80.10           -68.74
70.56           80.20           -71.84
70.85           80.29           -74.98
71.14           80.37           -78.20
71.44           80.44           -81.59
71.73           80.49           -85.20
72.03           80.52           -89.02
72.32           80.53           -93.01
72.62           80.51           -97.04
72.92           80.44           -101.00
73.22           80.33           -104.78
73.52           80.18           -108.37
73.82           80.00           -111.78
74.13           79.78           -115.14
74.43           79.54           -118.56
74.74           79.27           -122.14
75.04           78.98           -125.87
75.35           78.66           -129.71
75.66           78.31           -133.53
75.97           77.93           -137.19
76.29           77.50           -140.59
76.60           77.03           -143.69
76.92           76.54           -146.53
